Created as New Dataset,Sample 194 By Administrator Date Wednesday, September 10 2025
cm-1,A
4000.00,0.0018
3999.00,0.0018
3998.00,0.0018
3997.00,0.0018
3996.00,0.0018
3995.00,0.0018
3994.00,0.0018
3993.00,0.0018
3992.00,0.0018
3991.00,0.0018
3990.00,0.0018
3989.00,0.0017
3988.00,0.0017
3987.00,0.0017
3986.00,0.0017
3985.00,0.0017
3984.00,0.0018
3983.00,0.0017
3982.00,0.0017
3981.00,0.0017
3980.00,0.0017
3979.00,0.0017
3978.00,0.0017
3977.00,0.0016
3976.00,0.0016
3975.00,0.0016
3974.00,0.0016
3973.00,0.0016
3972.00,0.0016
3971.00,0.0016
3970.00,0.0016
3969.00,0.0016
3968.00,0.0016
3967.00,0.0016
3966.00,0.0016
3965.00,0.0016
3964.00,0.0016
3963.00,0.0016
3962.00,0.0016
3961.00,0.0016
3960.00,0.0016
3959.00,0.0016
3958.00,0.0016
3957.00,0.0015
3956.00,0.0015
3955.00,0.0015
3954.00,0.0016
3953.00,0.0016
3952.00,0.0017
3951.00,0.0017
3950.00,0.0017
3949.00,0.0017
3948.00,0.0017
3947.00,0.0017
3946.00,0.0016
3945.00,0.0016
3944.00,0.0017
3943.00,0.0017
3942.00,0.0017
3941.00,0.0017
3940.00,0.0016
3939.00,0.0016
3938.00,0.0017
3937.00,0.0017
3936.00,0.0016
3935.00,0.0016
3934.00,0.0015
3933.00,0.0015
3932.00,0.0015
3931.00,0.0015
3930.00,0.0016
3929.00,0.0016
3928.00,0.0016
3927.00,0.0016
3926.00,0.0017
3925.00,0.0017
3924.00,0.0017
3923.00,0.0017
3922.00,0.0017
3921.00,0.0017
3920.00,0.0017
3919.00,0.0017
3918.00,0.0017
3917.00,0.0017
3916.00,0.0017
3915.00,0.0016
3914.00,0.0016
3913.00,0.0016
3912.00,0.0016
3911.00,0.0016
3910.00,0.0016
3909.00,0.0016
3908.00,0.0016
3907.00,0.0016
3906.00,0.0016
3905.00,0.0016
3904.00,0.0016
3903.00,0.0016
3902.00,0.0016
3901.00,0.0016
3900.00,0.0016
3899.00,0.0016
3898.00,0.0015
3897.00,0.0015
3896.00,0.0015
3895.00,0.0016
3894.00,0.0016
3893.00,0.0016
3892.00,0.0017
3891.00,0.0016
3890.00,0.0016
3889.00,0.0016
3888.00,0.0016
3887.00,0.0016
3886.00,0.0017
3885.00,0.0017
3884.00,0.0016
3883.00,0.0015
3882.00,0.0015
3881.00,0.0015
3880.00,0.0016
3879.00,0.0016
3878.00,0.0016
3877.00,0.0016
3876.00,0.0016
3875.00,0.0016
3874.00,0.0016
3873.00,0.0016
3872.00,0.0016
3871.00,0.0016
3870.00,0.0016
3869.00,0.0016
3868.00,0.0016
3867.00,0.0016
3866.00,0.0016
3865.00,0.0016
3864.00,0.0016
3863.00,0.0016
3862.00,0.0015
3861.00,0.0015
3860.00,0.0015
3859.00,0.0016
3858.00,0.0016
3857.00,0.0015
3856.00,0.0015
3855.00,0.0015
3854.00,0.0015
3853.00,0.0015
3852.00,0.0015
3851.00,0.0015
3850.00,0.0015
3849.00,0.0015
3848.00,0.0015
3847.00,0.0014
3846.00,0.0014
3845.00,0.0015
3844.00,0.0015
3843.00,0.0016
3842.00,0.0016
3841.00,0.0016
3840.00,0.0016
3839.00,0.0015
3838.00,0.0015
3837.00,0.0015
3836.00,0.0015
3835.00,0.0015
3834.00,0.0015
3833.00,0.0015
3832.00,0.0015
3831.00,0.0016
3830.00,0.0016
3829.00,0.0016
3828.00,0.0016
3827.00,0.0016
3826.00,0.0016
3825.00,0.0016
3824.00,0.0015
3823.00,0.0015
3822.00,0.0015
3821.00,0.0015
3820.00,0.0015
3819.00,0.0015
3818.00,0.0015
3817.00,0.0015
3816.00,0.0015
3815.00,0.0015
3814.00,0.0016
3813.00,0.0016
3812.00,0.0017
3811.00,0.0017
3810.00,0.0017
3809.00,0.0016
3808.00,0.0016
3807.00,0.0016
3806.00,0.0016
3805.00,0.0015
3804.00,0.0014
3803.00,0.0014
3802.00,0.0014
3801.00,0.0014
3800.00,0.0014
3799.00,0.0013
3798.00,0.0014
3797.00,0.0014
3796.00,0.0014
3795.00,0.0015
3794.00,0.0014
3793.00,0.0015
3792.00,0.0015
3791.00,0.0015
3790.00,0.0015
3789.00,0.0015
3788.00,0.0015
3787.00,0.0014
3786.00,0.0014
3785.00,0.0015
3784.00,0.0015
3783.00,0.0014
3782.00,0.0014
3781.00,0.0014
3780.00,0.0015
3779.00,0.0015
3778.00,0.0015
3777.00,0.0015
3776.00,0.0016
3775.00,0.0016
3774.00,0.0016
3773.00,0.0016
3772.00,0.0015
3771.00,0.0015
3770.00,0.0016
3769.00,0.0016
3768.00,0.0016
3767.00,0.0016
3766.00,0.0016
3765.00,0.0016
3764.00,0.0016
3763.00,0.0017
3762.00,0.0017
3761.00,0.0017
3760.00,0.0017
3759.00,0.0016
3758.00,0.0016
3757.00,0.0016
3756.00,0.0016
3755.00,0.0016
3754.00,0.0016
3753.00,0.0016
3752.00,0.0016
3751.00,0.0016
3750.00,0.0016
3749.00,0.0015
3748.00,0.0015
3747.00,0.0014
3746.00,0.0014
3745.00,0.0014
3744.00,0.0014
3743.00,0.0014
3742.00,0.0014
3741.00,0.0014
3740.00,0.0015
3739.00,0.0015
3738.00,0.0015
3737.00,0.0015
3736.00,0.0015
3735.00,0.0015
3734.00,0.0014
3733.00,0.0014
3732.00,0.0014
3731.00,0.0014
3730.00,0.0014
3729.00,0.0015
3728.00,0.0015
3727.00,0.0015
3726.00,0.0014
3725.00,0.0014
3724.00,0.0013
3723.00,0.0014
3722.00,0.0014
3721.00,0.0014
3720.00,0.0014
3719.00,0.0014
3718.00,0.0013
3717.00,0.0013
3716.00,0.0013
3715.00,0.0013
3714.00,0.0013
3713.00,0.0013
3712.00,0.0012
3711.00,0.0011
3710.00,0.0011
3709.00,0.0012
3708.00,0.0012
3707.00,0.0012
3706.00,0.0012
3705.00,0.0012
3704.00,0.0012
3703.00,0.0012
3702.00,0.0012
3701.00,0.0013
3700.00,0.0013
3699.00,0.0013
3698.00,0.0013
3697.00,0.0014
3696.00,0.0014
3695.00,0.0015
3694.00,0.0015
3693.00,0.0014
3692.00,0.0014
3691.00,0.0013
3690.00,0.0013
3689.00,0.0013
3688.00,0.0013
3687.00,0.0013
3686.00,0.0013
3685.00,0.0013
3684.00,0.0013
3683.00,0.0013
3682.00,0.0013
3681.00,0.0014
3680.00,0.0014
3679.00,0.0014
3678.00,0.0014
3677.00,0.0014
3676.00,0.0014
3675.00,0.0014
3674.00,0.0013
3673.00,0.0012
3672.00,0.0012
3671.00,0.0012
3670.00,0.0012
3669.00,0.0012
3668.00,0.0012
3667.00,0.0012
3666.00,0.0012
3665.00,0.0012
3664.00,0.0013
3663.00,0.0013
3662.00,0.0013
3661.00,0.0013
3660.00,0.0012
3659.00,0.0012
3658.00,0.0012
3657.00,0.0012
3656.00,0.0012
3655.00,0.0012
3654.00,0.0012
3653.00,0.0011
3652.00,0.0011
3651.00,0.0012
3650.00,0.0012
3649.00,0.0012
3648.00,0.0012
3647.00,0.0012
3646.00,0.0012
3645.00,0.0012
3644.00,0.0012
3643.00,0.0012
3642.00,0.0012
3641.00,0.0012
3640.00,0.0012
3639.00,0.0012
3638.00,0.0012
3637.00,0.0012
3636.00,0.0013
3635.00,0.0013
3634.00,0.0013
3633.00,0.0013
3632.00,0.0013
3631.00,0.0013
3630.00,0.0013
3629.00,0.0014
3628.00,0.0013
3627.00,0.0013
3626.00,0.0012
3625.00,0.0012
3624.00,0.0011
3623.00,0.0012
3622.00,0.0012
3621.00,0.0013
3620.00,0.0014
3619.00,0.0014
3618.00,0.0014
3617.00,0.0013
3616.00,0.0013
3615.00,0.0012
3614.00,0.0013
3613.00,0.0013
3612.00,0.0013
3611.00,0.0013
3610.00,0.0013
3609.00,0.0013
3608.00,0.0013
3607.00,0.0013
3606.00,0.0013
3605.00,0.0013
3604.00,0.0013
3603.00,0.0014
3602.00,0.0014
3601.00,0.0014
3600.00,0.0014
3599.00,0.0014
3598.00,0.0014
3597.00,0.0014
3596.00,0.0014
3595.00,0.0014
3594.00,0.0015
3593.00,0.0015
3592.00,0.0015
3591.00,0.0015
3590.00,0.0015
3589.00,0.0015
3588.00,0.0014
3587.00,0.0014
3586.00,0.0014
3585.00,0.0014
3584.00,0.0014
3583.00,0.0014
3582.00,0.0014
3581.00,0.0014
3580.00,0.0014
3579.00,0.0015
3578.00,0.0015
3577.00,0.0015
3576.00,0.0015
3575.00,0.0015
3574.00,0.0016
3573.00,0.0016
3572.00,0.0016
3571.00,0.0016
3570.00,0.0015
3569.00,0.0015
3568.00,0.0015
3567.00,0.0015
3566.00,0.0015
3565.00,0.0016
3564.00,0.0016
3563.00,0.0016
3562.00,0.0016
3561.00,0.0016
3560.00,0.0016
3559.00,0.0016
3558.00,0.0016
3557.00,0.0016
3556.00,0.0016
3555.00,0.0017
3554.00,0.0017
3553.00,0.0017
3552.00,0.0017
3551.00,0.0017
3550.00,0.0017
3549.00,0.0017
3548.00,0.0017
3547.00,0.0017
3546.00,0.0017
3545.00,0.0017
3544.00,0.0017
3543.00,0.0018
3542.00,0.0018
3541.00,0.0018
3540.00,0.0018
3539.00,0.0017
3538.00,0.0017
3537.00,0.0018
3536.00,0.0018
3535.00,0.0018
3534.00,0.0018
3533.00,0.0018
3532.00,0.0018
3531.00,0.0019
3530.00,0.0019
3529.00,0.0020
3528.00,0.0020
3527.00,0.0020
3526.00,0.0019
3525.00,0.0019
3524.00,0.0019
3523.00,0.0019
3522.00,0.0020
3521.00,0.0020
3520.00,0.0019
3519.00,0.0019
3518.00,0.0019
3517.00,0.0020
3516.00,0.0020
3515.00,0.0020
3514.00,0.0020
3513.00,0.0021
3512.00,0.0021
3511.00,0.0021
3510.00,0.0021
3509.00,0.0020
3508.00,0.0020
3507.00,0.0020
3506.00,0.0020
3505.00,0.0020
3504.00,0.0021
3503.00,0.0021
3502.00,0.0021
3501.00,0.0021
3500.00,0.0021
3499.00,0.0021
3498.00,0.0021
3497.00,0.0021
3496.00,0.0021
3495.00,0.0022
3494.00,0.0022
3493.00,0.0022
3492.00,0.0021
3491.00,0.0021
3490.00,0.0021
3489.00,0.0021
3488.00,0.0022
3487.00,0.0022
3486.00,0.0022
3485.00,0.0022
3484.00,0.0022
3483.00,0.0022
3482.00,0.0022
3481.00,0.0022
3480.00,0.0022
3479.00,0.0023
3478.00,0.0023
3477.00,0.0023
3476.00,0.0023
3475.00,0.0022
3474.00,0.0022
3473.00,0.0022
3472.00,0.0022
3471.00,0.0022
3470.00,0.0022
3469.00,0.0023
3468.00,0.0023
3467.00,0.0023
3466.00,0.0023
3465.00,0.0023
3464.00,0.0023
3463.00,0.0023
3462.00,0.0024
3461.00,0.0024
3460.00,0.0024
3459.00,0.0024
3458.00,0.0024
3457.00,0.0024
3456.00,0.0024
3455.00,0.0024
3454.00,0.0024
3453.00,0.0024
3452.00,0.0024
3451.00,0.0024
3450.00,0.0024
3449.00,0.0024
3448.00,0.0025
3447.00,0.0025
3446.00,0.0025
3445.00,0.0025
3444.00,0.0025
3443.00,0.0025
3442.00,0.0025
3441.00,0.0025
3440.00,0.0026
3439.00,0.0026
3438.00,0.0026
3437.00,0.0026
3436.00,0.0026
3435.00,0.0026
3434.00,0.0026
3433.00,0.0027
3432.00,0.0027
3431.00,0.0027
3430.00,0.0027
3429.00,0.0027
3428.00,0.0027
3427.00,0.0027
3426.00,0.0027
3425.00,0.0027
3424.00,0.0027
3423.00,0.0027
3422.00,0.0027
3421.00,0.0027
3420.00,0.0028
3419.00,0.0028
3418.00,0.0028
3417.00,0.0028
3416.00,0.0028
3415.00,0.0028
3414.00,0.0028
3413.00,0.0028
3412.00,0.0028
3411.00,0.0029
3410.00,0.0029
3409.00,0.0029
3408.00,0.0028
3407.00,0.0028
3406.00,0.0028
3405.00,0.0028
3404.00,0.0028
3403.00,0.0028
3402.00,0.0028
3401.00,0.0028
3400.00,0.0028
3399.00,0.0028
3398.00,0.0028
3397.00,0.0028
3396.00,0.0029
3395.00,0.0029
3394.00,0.0028
3393.00,0.0028
3392.00,0.0028
3391.00,0.0028
3390.00,0.0028
3389.00,0.0028
3388.00,0.0029
3387.00,0.0029
3386.00,0.0029
3385.00,0.0029
3384.00,0.0029
3383.00,0.0029
3382.00,0.0029
3381.00,0.0029
3380.00,0.0029
3379.00,0.0029
3378.00,0.0028
3377.00,0.0028
3376.00,0.0029
3375.00,0.0029
3374.00,0.0029
3373.00,0.0029
3372.00,0.0029
3371.00,0.0028
3370.00,0.0028
3369.00,0.0028
3368.00,0.0029
3367.00,0.0029
3366.00,0.0030
3365.00,0.0030
3364.00,0.0030
3363.00,0.0030
3362.00,0.0030
3361.00,0.0030
3360.00,0.0030
3359.00,0.0030
3358.00,0.0030
3357.00,0.0030
3356.00,0.0030
3355.00,0.0029
3354.00,0.0030
3353.00,0.0030
3352.00,0.0030
3351.00,0.0030
3350.00,0.0030
3349.00,0.0030
3348.00,0.0030
3347.00,0.0030
3346.00,0.0030
3345.00,0.0030
3344.00,0.0030
3343.00,0.0030
3342.00,0.0030
3341.00,0.0030
3340.00,0.0030
3339.00,0.0030
3338.00,0.0030
3337.00,0.0030
3336.00,0.0030
3335.00,0.0030
3334.00,0.0030
3333.00,0.0030
3332.00,0.0030
3331.00,0.0030
3330.00,0.0030
3329.00,0.0030
3328.00,0.0030
3327.00,0.0030
3326.00,0.0030
3325.00,0.0030
3324.00,0.0030
3323.00,0.0029
3322.00,0.0029
3321.00,0.0029
3320.00,0.0029
3319.00,0.0029
3318.00,0.0029
3317.00,0.0029
3316.00,0.0028
3315.00,0.0028
3314.00,0.0028
3313.00,0.0029
3312.00,0.0029
3311.00,0.0030
3310.00,0.0030
3309.00,0.0029
3308.00,0.0029
3307.00,0.0029
3306.00,0.0029
3305.00,0.0030
3304.00,0.0030
3303.00,0.0030
3302.00,0.0030
3301.00,0.0030
3300.00,0.0030
3299.00,0.0030
3298.00,0.0030
3297.00,0.0031
3296.00,0.0031
3295.00,0.0031
3294.00,0.0031
3293.00,0.0030
3292.00,0.0030
3291.00,0.0030
3290.00,0.0029
3289.00,0.0029
3288.00,0.0029
3287.00,0.0029
3286.00,0.0029
3285.00,0.0029
3284.00,0.0029
3283.00,0.0029
3282.00,0.0029
3281.00,0.0029
3280.00,0.0029
3279.00,0.0029
3278.00,0.0029
3277.00,0.0029
3276.00,0.0029
3275.00,0.0029
3274.00,0.0029
3273.00,0.0029
3272.00,0.0029
3271.00,0.0029
3270.00,0.0029
3269.00,0.0029
3268.00,0.0028
3267.00,0.0028
3266.00,0.0029
3265.00,0.0029
3264.00,0.0029
3263.00,0.0028
3262.00,0.0028
3261.00,0.0028
3260.00,0.0028
3259.00,0.0029
3258.00,0.0029
3257.00,0.0028
3256.00,0.0028
3255.00,0.0028
3254.00,0.0028
3253.00,0.0028
3252.00,0.0028
3251.00,0.0028
3250.00,0.0028
3249.00,0.0028
3248.00,0.0028
3247.00,0.0028
3246.00,0.0028
3245.00,0.0028
3244.00,0.0028
3243.00,0.0028
3242.00,0.0028
3241.00,0.0027
3240.00,0.0027
3239.00,0.0027
3238.00,0.0028
3237.00,0.0028
3236.00,0.0028
3235.00,0.0028
3234.00,0.0028
3233.00,0.0028
3232.00,0.0028
3231.00,0.0028
3230.00,0.0028
3229.00,0.0029
3228.00,0.0029
3227.00,0.0029
3226.00,0.0029
3225.00,0.0029
3224.00,0.0030
3223.00,0.0030
3222.00,0.0030
3221.00,0.0030
3220.00,0.0030
3219.00,0.0030
3218.00,0.0031
3217.00,0.0031
3216.00,0.0031
3215.00,0.0031
3214.00,0.0031
3213.00,0.0031
3212.00,0.0031
3211.00,0.0031
3210.00,0.0032
3209.00,0.0032
3208.00,0.0032
3207.00,0.0032
3206.00,0.0032
3205.00,0.0032
3204.00,0.0032
3203.00,0.0032
3202.00,0.0033
3201.00,0.0033
3200.00,0.0033
3199.00,0.0033
3198.00,0.0033
3197.00,0.0033
3196.00,0.0033
3195.00,0.0033
3194.00,0.0033
3193.00,0.0033
3192.00,0.0033
3191.00,0.0033
3190.00,0.0033
3189.00,0.0033
3188.00,0.0033
3187.00,0.0032
3186.00,0.0033
3185.00,0.0033
3184.00,0.0033
3183.00,0.0033
3182.00,0.0032
3181.00,0.0032
3180.00,0.0032
3179.00,0.0032
3178.00,0.0032
3177.00,0.0032
3176.00,0.0032
3175.00,0.0032
3174.00,0.0032
3173.00,0.0032
3172.00,0.0032
3171.00,0.0032
3170.00,0.0031
3169.00,0.0031
3168.00,0.0030
3167.00,0.0030
3166.00,0.0030
3165.00,0.0030
3164.00,0.0030
3163.00,0.0030
3162.00,0.0031
3161.00,0.0031
3160.00,0.0031
3159.00,0.0031
3158.00,0.0031
3157.00,0.0031
3156.00,0.0031
3155.00,0.0031
3154.00,0.0031
3153.00,0.0032
3152.00,0.0032
3151.00,0.0031
3150.00,0.0031
3149.00,0.0031
3148.00,0.0031
3147.00,0.0031
3146.00,0.0032
3145.00,0.0031
3144.00,0.0031
3143.00,0.0031
3142.00,0.0030
3141.00,0.0030
3140.00,0.0030
3139.00,0.0030
3138.00,0.0030
3137.00,0.0030
3136.00,0.0030
3135.00,0.0030
3134.00,0.0030
3133.00,0.0030
3132.00,0.0030
3131.00,0.0030
3130.00,0.0029
3129.00,0.0029
3128.00,0.0029
3127.00,0.0029
3126.00,0.0029
3125.00,0.0029
3124.00,0.0028
3123.00,0.0028
3122.00,0.0028
3121.00,0.0027
3120.00,0.0027
3119.00,0.0028
3118.00,0.0028
3117.00,0.0028
3116.00,0.0028
3115.00,0.0027
3114.00,0.0027
3113.00,0.0027
3112.00,0.0026
3111.00,0.0026
3110.00,0.0026
3109.00,0.0026
3108.00,0.0027
3107.00,0.0027
3106.00,0.0027
3105.00,0.0027
3104.00,0.0027
3103.00,0.0027
3102.00,0.0027
3101.00,0.0028
3100.00,0.0028
3099.00,0.0028
3098.00,0.0028
3097.00,0.0028
3096.00,0.0028
3095.00,0.0028
3094.00,0.0028
3093.00,0.0027
3092.00,0.0027
3091.00,0.0027
3090.00,0.0027
3089.00,0.0026
3088.00,0.0026
3087.00,0.0026
3086.00,0.0026
3085.00,0.0027
3084.00,0.0027
3083.00,0.0027
3082.00,0.0027
3081.00,0.0027
3080.00,0.0027
3079.00,0.0027
3078.00,0.0028
3077.00,0.0028
3076.00,0.0028
3075.00,0.0028
3074.00,0.0028
3073.00,0.0029
3072.00,0.0029
3071.00,0.0029
3070.00,0.0029
3069.00,0.0029
3068.00,0.0029
3067.00,0.0029
3066.00,0.0030
3065.00,0.0030
3064.00,0.0030
3063.00,0.0030
3062.00,0.0030
3061.00,0.0030
3060.00,0.0030
3059.00,0.0030
3058.00,0.0030
3057.00,0.0030
3056.00,0.0031
3055.00,0.0031
3054.00,0.0032
3053.00,0.0032
3052.00,0.0032
3051.00,0.0032
3050.00,0.0032
3049.00,0.0032
3048.00,0.0032
3047.00,0.0032
3046.00,0.0032
3045.00,0.0032
3044.00,0.0032
3043.00,0.0033
3042.00,0.0033
3041.00,0.0034
3040.00,0.0035
3039.00,0.0035
3038.00,0.0035
3037.00,0.0035
3036.00,0.0035
3035.00,0.0035
3034.00,0.0035
3033.00,0.0035
3032.00,0.0036
3031.00,0.0037
3030.00,0.0037
3029.00,0.0038
3028.00,0.0038
3027.00,0.0038
3026.00,0.0039
3025.00,0.0039
3024.00,0.0039
3023.00,0.0040
3022.00,0.0041
3021.00,0.0042
3020.00,0.0043
3019.00,0.0045
3018.00,0.0046
3017.00,0.0047
3016.00,0.0048
3015.00,0.0049
3014.00,0.0050
3013.00,0.0051
3012.00,0.0052
3011.00,0.0053
3010.00,0.0054
3009.00,0.0056
3008.00,0.0057
3007.00,0.0059
3006.00,0.0060
3005.00,0.0062
3004.00,0.0064
3003.00,0.0066
3002.00,0.0068
3001.00,0.0071
3000.00,0.0073
2999.00,0.0075
2998.00,0.0078
2997.00,0.0082
2996.00,0.0085
2995.00,0.0089
2994.00,0.0093
2993.00,0.0097
2992.00,0.0102
2991.00,0.0108
2990.00,0.0114
2989.00,0.0121
2988.00,0.0128
2987.00,0.0136
2986.00,0.0146
2985.00,0.0156
2984.00,0.0168
2983.00,0.0181
2982.00,0.0195
2981.00,0.0212
2980.00,0.0230
2979.00,0.0251
2978.00,0.0276
2977.00,0.0303
2976.00,0.0335
2975.00,0.0371
2974.00,0.0411
2973.00,0.0458
2972.00,0.0509
2971.00,0.0567
2970.00,0.0632
2969.00,0.0703
2968.00,0.0779
2967.00,0.0861
2966.00,0.0945
2965.00,0.1030
2964.00,0.1113
2963.00,0.1189
2962.00,0.1256
2961.00,0.1313
2960.00,0.1359
2959.00,0.1400
2958.00,0.1441
2957.00,0.1486
2956.00,0.1540
2955.00,0.1606
2954.00,0.1681
2953.00,0.1760
2952.00,0.1831
2951.00,0.1883
2950.00,0.1905
2949.00,0.1886
2948.00,0.1826
2947.00,0.1729
2946.00,0.1607
2945.00,0.1477
2944.00,0.1352
2943.00,0.1245
2942.00,0.1161
2941.00,0.1103
2940.00,0.1071
2939.00,0.1061
2938.00,0.1072
2937.00,0.1101
2936.00,0.1146
2935.00,0.1208
2934.00,0.1285
2933.00,0.1374
2932.00,0.1475
2931.00,0.1585
2930.00,0.1702
2929.00,0.1822
2928.00,0.1942
2927.00,0.2060
2926.00,0.2174
2925.00,0.2285
2924.00,0.2394
2923.00,0.2502
2922.00,0.2610
2921.00,0.2715
2920.00,0.2808
2919.00,0.2881
2918.00,0.2921
2917.00,0.2919
2916.00,0.2873
2915.00,0.2790
2914.00,0.2682
2913.00,0.2562
2912.00,0.2442
2911.00,0.2330
2910.00,0.2228
2909.00,0.2136
2908.00,0.2053
2907.00,0.1975
2906.00,0.1900
2905.00,0.1826
2904.00,0.1753
2903.00,0.1681
2902.00,0.1610
2901.00,0.1542
2900.00,0.1476
2899.00,0.1414
2898.00,0.1356
2897.00,0.1303
2896.00,0.1255
2895.00,0.1214
2894.00,0.1179
2893.00,0.1150
2892.00,0.1128
2891.00,0.1111
2890.00,0.1099
2889.00,0.1092
2888.00,0.1089
2887.00,0.1089
2886.00,0.1093
2885.00,0.1101
2884.00,0.1114
2883.00,0.1132
2882.00,0.1154
2881.00,0.1180
2880.00,0.1206
2879.00,0.1228
2878.00,0.1243
2877.00,0.1247
2876.00,0.1244
2875.00,0.1235
2874.00,0.1228
2873.00,0.1226
2872.00,0.1231
2871.00,0.1245
2870.00,0.1263
2869.00,0.1282
2868.00,0.1293
2867.00,0.1288
2866.00,0.1262
2865.00,0.1211
2864.00,0.1141
2863.00,0.1061
2862.00,0.0981
2861.00,0.0911
2860.00,0.0855
2859.00,0.0817
2858.00,0.0795
2857.00,0.0787
2856.00,0.0790
2855.00,0.0801
2854.00,0.0818
2853.00,0.0838
2852.00,0.0859
2851.00,0.0876
2850.00,0.0890
2849.00,0.0900
2848.00,0.0909
2847.00,0.0921
2846.00,0.0943
2845.00,0.0975
2844.00,0.1019
2843.00,0.1071
2842.00,0.1127
2841.00,0.1181
2840.00,0.1223
2839.00,0.1247
2838.00,0.1244
2837.00,0.1211
2836.00,0.1147
2835.00,0.1058
2834.00,0.0953
2833.00,0.0843
2832.00,0.0739
2831.00,0.0645
2830.00,0.0566
2829.00,0.0501
2828.00,0.0448
2827.00,0.0405
2826.00,0.0371
2825.00,0.0343
2824.00,0.0319
2823.00,0.0299
2822.00,0.0282
2821.00,0.0268
2820.00,0.0255
2819.00,0.0244
2818.00,0.0235
2817.00,0.0226
2816.00,0.0218
2815.00,0.0211
2814.00,0.0205
2813.00,0.0199
2812.00,0.0194
2811.00,0.0188
2810.00,0.0182
2809.00,0.0177
2808.00,0.0171
2807.00,0.0164
2806.00,0.0157
2805.00,0.0151
2804.00,0.0144
2803.00,0.0138
2802.00,0.0133
2801.00,0.0129
2800.00,0.0125
2799.00,0.0121
2798.00,0.0118
2797.00,0.0115
2796.00,0.0113
2795.00,0.0110
2794.00,0.0108
2793.00,0.0105
2792.00,0.0102
2791.00,0.0099
2790.00,0.0096
2789.00,0.0093
2788.00,0.0091
2787.00,0.0088
2786.00,0.0086
2785.00,0.0083
2784.00,0.0081
2783.00,0.0079
2782.00,0.0076
2781.00,0.0074
2780.00,0.0073
2779.00,0.0071
2778.00,0.0069
2777.00,0.0068
2776.00,0.0067
2775.00,0.0066
2774.00,0.0065
2773.00,0.0065
2772.00,0.0064
2771.00,0.0064
2770.00,0.0063
2769.00,0.0063
2768.00,0.0063
2767.00,0.0062
2766.00,0.0062
2765.00,0.0062
2764.00,0.0061
2763.00,0.0061
2762.00,0.0061
2761.00,0.0060
2760.00,0.0060
2759.00,0.0060
2758.00,0.0059
2757.00,0.0059
2756.00,0.0059
2755.00,0.0059
2754.00,0.0058
2753.00,0.0058
2752.00,0.0058
2751.00,0.0058
2750.00,0.0058
2749.00,0.0058
2748.00,0.0058
2747.00,0.0059
2746.00,0.0059
2745.00,0.0059
2744.00,0.0060
2743.00,0.0061
2742.00,0.0062
2741.00,0.0063
2740.00,0.0064
2739.00,0.0065
2738.00,0.0067
2737.00,0.0069
2736.00,0.0070
2735.00,0.0072
2734.00,0.0073
2733.00,0.0074
2732.00,0.0076
2731.00,0.0078
2730.00,0.0080
2729.00,0.0083
2728.00,0.0086
2727.00,0.0089
2726.00,0.0092
2725.00,0.0094
2724.00,0.0096
2723.00,0.0096
2722.00,0.0095
2721.00,0.0094
2720.00,0.0091
2719.00,0.0088
2718.00,0.0084
2717.00,0.0081
2716.00,0.0078
2715.00,0.0075
2714.00,0.0072
2713.00,0.0070
2712.00,0.0068
2711.00,0.0066
2710.00,0.0064
2709.00,0.0063
2708.00,0.0061
2707.00,0.0060
2706.00,0.0058
2705.00,0.0057
2704.00,0.0056
2703.00,0.0056
2702.00,0.0055
2701.00,0.0054
2700.00,0.0053
2699.00,0.0053
2698.00,0.0053
2697.00,0.0052
2696.00,0.0052
2695.00,0.0052
2694.00,0.0052
2693.00,0.0052
2692.00,0.0052
2691.00,0.0053
2690.00,0.0052
2689.00,0.0052
2688.00,0.0052
2687.00,0.0052
2686.00,0.0051
2685.00,0.0051
2684.00,0.0052
2683.00,0.0052
2682.00,0.0052
2681.00,0.0053
2680.00,0.0053
2679.00,0.0053
2678.00,0.0053
2677.00,0.0053
2676.00,0.0053
2675.00,0.0052
2674.00,0.0052
2673.00,0.0052
2672.00,0.0052
2671.00,0.0052
2670.00,0.0052
2669.00,0.0052
2668.00,0.0053
2667.00,0.0053
2666.00,0.0053
2665.00,0.0053
2664.00,0.0054
2663.00,0.0055
2662.00,0.0055
2661.00,0.0055
2660.00,0.0055
2659.00,0.0055
2658.00,0.0055
2657.00,0.0055
2656.00,0.0055
2655.00,0.0055
2654.00,0.0054
2653.00,0.0054
2652.00,0.0053
2651.00,0.0052
2650.00,0.0052
2649.00,0.0052
2648.00,0.0052
2647.00,0.0051
2646.00,0.0051
2645.00,0.0050
2644.00,0.0050
2643.00,0.0049
2642.00,0.0048
2641.00,0.0047
2640.00,0.0047
2639.00,0.0046
2638.00,0.0046
2637.00,0.0046
2636.00,0.0046
2635.00,0.0046
2634.00,0.0046
2633.00,0.0047
2632.00,0.0047
2631.00,0.0047
2630.00,0.0047
2629.00,0.0048
2628.00,0.0048
2627.00,0.0048
2626.00,0.0048
2625.00,0.0048
2624.00,0.0048
2623.00,0.0048
2622.00,0.0048
2621.00,0.0048
2620.00,0.0048
2619.00,0.0048
2618.00,0.0048
2617.00,0.0049
2616.00,0.0049
2615.00,0.0048
2614.00,0.0048
2613.00,0.0048
2612.00,0.0047
2611.00,0.0046
2610.00,0.0045
2609.00,0.0044
2608.00,0.0043
2607.00,0.0042
2606.00,0.0042
2605.00,0.0041
2604.00,0.0041
2603.00,0.0041
2602.00,0.0040
2601.00,0.0040
2600.00,0.0040
2599.00,0.0040
2598.00,0.0040
2597.00,0.0040
2596.00,0.0040
2595.00,0.0040
2594.00,0.0041
2593.00,0.0041
2592.00,0.0041
2591.00,0.0042
2590.00,0.0042
2589.00,0.0043
2588.00,0.0044
2587.00,0.0045
2586.00,0.0046
2585.00,0.0046
2584.00,0.0047
2583.00,0.0047
2582.00,0.0047
2581.00,0.0047
2580.00,0.0047
2579.00,0.0046
2578.00,0.0045
2577.00,0.0044
2576.00,0.0043
2575.00,0.0042
2574.00,0.0040
2573.00,0.0039
2572.00,0.0037
2571.00,0.0036
2570.00,0.0035
2569.00,0.0034
2568.00,0.0034
2567.00,0.0033
2566.00,0.0033
2565.00,0.0033
2564.00,0.0032
2563.00,0.0032
2562.00,0.0031
2561.00,0.0030
2560.00,0.0030
2559.00,0.0030
2558.00,0.0030
2557.00,0.0030
2556.00,0.0029
2555.00,0.0028
2554.00,0.0028
2553.00,0.0028
2552.00,0.0028
2551.00,0.0028
2550.00,0.0028
2549.00,0.0028
2548.00,0.0028
2547.00,0.0027
2546.00,0.0026
2545.00,0.0025
2544.00,0.0025
2543.00,0.0024
2542.00,0.0025
2541.00,0.0025
2540.00,0.0025
2539.00,0.0024
2538.00,0.0024
2537.00,0.0023
2536.00,0.0023
2535.00,0.0023
2534.00,0.0023
2533.00,0.0023
2532.00,0.0023
2531.00,0.0023
2530.00,0.0023
2529.00,0.0023
2528.00,0.0023
2527.00,0.0022
2526.00,0.0022
2525.00,0.0022
2524.00,0.0021
2523.00,0.0021
2522.00,0.0020
2521.00,0.0019
2520.00,0.0019
2519.00,0.0019
2518.00,0.0020
2517.00,0.0020
2516.00,0.0019
2515.00,0.0019
2514.00,0.0018
2513.00,0.0018
2512.00,0.0017
2511.00,0.0017
2510.00,0.0017
2509.00,0.0017
2508.00,0.0017
2507.00,0.0018
2506.00,0.0018
2505.00,0.0018
2504.00,0.0018
2503.00,0.0017
2502.00,0.0017
2501.00,0.0017
2500.00,0.0017
2499.00,0.0018
2498.00,0.0018
2497.00,0.0018
2496.00,0.0018
2495.00,0.0018
2494.00,0.0017
2493.00,0.0016
2492.00,0.0016
2491.00,0.0016
2490.00,0.0017
2489.00,0.0017
2488.00,0.0017
2487.00,0.0017
2486.00,0.0018
2485.00,0.0018
2484.00,0.0018
2483.00,0.0017
2482.00,0.0017
2481.00,0.0017
2480.00,0.0017
2479.00,0.0017
2478.00,0.0017
2477.00,0.0016
2476.00,0.0015
2475.00,0.0014
2474.00,0.0013
2473.00,0.0014
2472.00,0.0014
2471.00,0.0015
2470.00,0.0015
2469.00,0.0016
2468.00,0.0016
2467.00,0.0015
2466.00,0.0015
2465.00,0.0015
2464.00,0.0016
2463.00,0.0016
2462.00,0.0017
2461.00,0.0017
2460.00,0.0017
2459.00,0.0017
2458.00,0.0017
2457.00,0.0017
2456.00,0.0017
2455.00,0.0017
2454.00,0.0018
2453.00,0.0018
2452.00,0.0018
2451.00,0.0018
2450.00,0.0018
2449.00,0.0018
2448.00,0.0017
2447.00,0.0017
2446.00,0.0018
2445.00,0.0018
2444.00,0.0018
2443.00,0.0018
2442.00,0.0018
2441.00,0.0018
2440.00,0.0018
2439.00,0.0019
2438.00,0.0019
2437.00,0.0018
2436.00,0.0018
2435.00,0.0017
2434.00,0.0017
2433.00,0.0018
2432.00,0.0018
2431.00,0.0018
2430.00,0.0018
2429.00,0.0018
2428.00,0.0017
2427.00,0.0017
2426.00,0.0017
2425.00,0.0017
2424.00,0.0018
2423.00,0.0018
2422.00,0.0017
2421.00,0.0017
2420.00,0.0016
2419.00,0.0016
2418.00,0.0015
2417.00,0.0015
2416.00,0.0016
2415.00,0.0016
2414.00,0.0016
2413.00,0.0017
2412.00,0.0017
2411.00,0.0016
2410.00,0.0016
2409.00,0.0016
2408.00,0.0015
2407.00,0.0015
2406.00,0.0015
2405.00,0.0015
2404.00,0.0015
2403.00,0.0015
2402.00,0.0015
2401.00,0.0015
2400.00,0.0015
2399.00,0.0015
2398.00,0.0015
2397.00,0.0015
2396.00,0.0014
2395.00,0.0014
2394.00,0.0014
2393.00,0.0014
2392.00,0.0014
2391.00,0.0014
2390.00,0.0013
2389.00,0.0013
2388.00,0.0013
2387.00,0.0013
2386.00,0.0013
2385.00,0.0013
2384.00,0.0013
2383.00,0.0012
2382.00,0.0012
2381.00,0.0011
2380.00,0.0010
2379.00,0.0010
2378.00,0.0010
2377.00,0.0009
2376.00,0.0009
2375.00,0.0009
2374.00,0.0010
2373.00,0.0011
2372.00,0.0012
2371.00,0.0012
2370.00,0.0012
2369.00,0.0011
2368.00,0.0011
2367.00,0.0010
2366.00,0.0010
2365.00,0.0010
2364.00,0.0011
2363.00,0.0011
2362.00,0.0012
2361.00,0.0012
2360.00,0.0013
2359.00,0.0013
2358.00,0.0013
2357.00,0.0013
2356.00,0.0013
2355.00,0.0013
2354.00,0.0012
2353.00,0.0012
2352.00,0.0013
2351.00,0.0013
2350.00,0.0013
2349.00,0.0011
2348.00,0.0010
2347.00,0.0010
2346.00,0.0012
2345.00,0.0013
2344.00,0.0014
2343.00,0.0014
2342.00,0.0014
2341.00,0.0014
2340.00,0.0015
2339.00,0.0016
2338.00,0.0016
2337.00,0.0016
2336.00,0.0016
2335.00,0.0015
2334.00,0.0015
2333.00,0.0014
2332.00,0.0014
2331.00,0.0015
2330.00,0.0015
2329.00,0.0016
2328.00,0.0017
2327.00,0.0020
2326.00,0.0024
2325.00,0.0028
2324.00,0.0030
2323.00,0.0029
2322.00,0.0027
2321.00,0.0025
2320.00,0.0023
2319.00,0.0023
2318.00,0.0022
2317.00,0.0021
2316.00,0.0019
2315.00,0.0018
2314.00,0.0018
2313.00,0.0018
2312.00,0.0018
2311.00,0.0019
2310.00,0.0019
2309.00,0.0018
2308.00,0.0019
2307.00,0.0019
2306.00,0.0019
2305.00,0.0020
2304.00,0.0020
2303.00,0.0020
2302.00,0.0019
2301.00,0.0019
2300.00,0.0020
2299.00,0.0021
2298.00,0.0022
2297.00,0.0023
2296.00,0.0023
2295.00,0.0023
2294.00,0.0023
2293.00,0.0023
2292.00,0.0024
2291.00,0.0024
2290.00,0.0025
2289.00,0.0026
2288.00,0.0027
2287.00,0.0028
2286.00,0.0028
2285.00,0.0027
2284.00,0.0026
2283.00,0.0025
2282.00,0.0023
2281.00,0.0023
2280.00,0.0022
2279.00,0.0022
2278.00,0.0021
2277.00,0.0020
2276.00,0.0019
2275.00,0.0018
2274.00,0.0018
2273.00,0.0020
2272.00,0.0021
2271.00,0.0022
2270.00,0.0022
2269.00,0.0021
2268.00,0.0020
2267.00,0.0018
2266.00,0.0017
2265.00,0.0017
2264.00,0.0017
2263.00,0.0019
2262.00,0.0020
2261.00,0.0020
2260.00,0.0019
2259.00,0.0019
2258.00,0.0019
2257.00,0.0019
2256.00,0.0019
2255.00,0.0018
2254.00,0.0016
2253.00,0.0016
2252.00,0.0016
2251.00,0.0017
2250.00,0.0017
2249.00,0.0018
2248.00,0.0017
2247.00,0.0016
2246.00,0.0015
2245.00,0.0015
2244.00,0.0015
2243.00,0.0016
2242.00,0.0016
2241.00,0.0017
2240.00,0.0017
2239.00,0.0017
2238.00,0.0016
2237.00,0.0015
2236.00,0.0014
2235.00,0.0012
2234.00,0.0011
2233.00,0.0011
2232.00,0.0010
2231.00,0.0009
2230.00,0.0010
2229.00,0.0010
2228.00,0.0012
2227.00,0.0013
2226.00,0.0015
2225.00,0.0016
2224.00,0.0017
2223.00,0.0016
2222.00,0.0014
2221.00,0.0013
2220.00,0.0012
2219.00,0.0010
2218.00,0.0009
2217.00,0.0008
2216.00,0.0009
2215.00,0.0012
2214.00,0.0014
2213.00,0.0015
2212.00,0.0015
2211.00,0.0014
2210.00,0.0013
2209.00,0.0012
2208.00,0.0011
2207.00,0.0010
2206.00,0.0009
2205.00,0.0010
2204.00,0.0010
2203.00,0.0010
2202.00,0.0010
2201.00,0.0010
2200.00,0.0010
2199.00,0.0011
2198.00,0.0012
2197.00,0.0013
2196.00,0.0014
2195.00,0.0014
2194.00,0.0013
2193.00,0.0013
2192.00,0.0014
2191.00,0.0016
2190.00,0.0017
2189.00,0.0018
2188.00,0.0019
2187.00,0.0018
2186.00,0.0018
2185.00,0.0018
2184.00,0.0017
2183.00,0.0015
2182.00,0.0011
2181.00,0.0008
2180.00,0.0007
2179.00,0.0007
2178.00,0.0007
2177.00,0.0006
2176.00,0.0003
2175.00,0.0002
2174.00,0.0003
2173.00,0.0007
2172.00,0.0011
2171.00,0.0014
2170.00,0.0016
2169.00,0.0018
2168.00,0.0020
2167.00,0.0023
2166.00,0.0025
2165.00,0.0027
2164.00,0.0028
2163.00,0.0027
2162.00,0.0025
2161.00,0.0018
2160.00,0.0006
2159.00,-0.0009
2158.00,-0.0020
2157.00,-0.0025
2156.00,-0.0025
2155.00,-0.0023
2154.00,-0.0021
2153.00,-0.0017
2152.00,-0.0012
2151.00,-0.0009
2150.00,-0.0008
2149.00,-0.0009
2148.00,-0.0011
2147.00,-0.0011
2146.00,-0.0010
2145.00,-0.0008
2144.00,-0.0007
2143.00,-0.0006
2142.00,-0.0005
2141.00,-0.0004
2140.00,-0.0004
2139.00,-0.0004
2138.00,-0.0005
2137.00,-0.0006
2136.00,-0.0008
2135.00,-0.0010
2134.00,-0.0011
2133.00,-0.0011
2132.00,-0.0010
2131.00,-0.0009
2130.00,-0.0007
2129.00,-0.0004
2128.00,-0.0002
2127.00,-0.0001
2126.00,-0.0000
2125.00,-0.0000
2124.00,0.0000
2123.00,0.0001
2122.00,0.0002
2121.00,0.0003
2120.00,0.0004
2119.00,0.0004
2118.00,0.0004
2117.00,0.0005
2116.00,0.0007
2115.00,0.0009
2114.00,0.0009
2113.00,0.0009
2112.00,0.0008
2111.00,0.0008
2110.00,0.0007
2109.00,0.0007
2108.00,0.0007
2107.00,0.0007
2106.00,0.0006
2105.00,0.0006
2104.00,0.0005
2103.00,0.0005
2102.00,0.0005
2101.00,0.0005
2100.00,0.0005
2099.00,0.0005
2098.00,0.0005
2097.00,0.0004
2096.00,0.0003
2095.00,0.0001
2094.00,-0.0001
2093.00,-0.0002
2092.00,-0.0001
2091.00,0.0001
2090.00,0.0004
2089.00,0.0005
2088.00,0.0006
2087.00,0.0007
2086.00,0.0009
2085.00,0.0011
2084.00,0.0012
2083.00,0.0013
2082.00,0.0013
2081.00,0.0012
2080.00,0.0010
2079.00,0.0009
2078.00,0.0008
2077.00,0.0008
2076.00,0.0009
2075.00,0.0009
2074.00,0.0008
2073.00,0.0008
2072.00,0.0008
2071.00,0.0009
2070.00,0.0009
2069.00,0.0008
2068.00,0.0008
2067.00,0.0007
2066.00,0.0007
2065.00,0.0007
2064.00,0.0007
2063.00,0.0005
2062.00,0.0003
2061.00,0.0001
2060.00,0.0002
2059.00,0.0003
2058.00,0.0005
2057.00,0.0006
2056.00,0.0008
2055.00,0.0009
2054.00,0.0010
2053.00,0.0012
2052.00,0.0014
2051.00,0.0016
2050.00,0.0015
2049.00,0.0012
2048.00,0.0010
2047.00,0.0010
2046.00,0.0011
2045.00,0.0012
2044.00,0.0012
2043.00,0.0011
2042.00,0.0008
2041.00,0.0007
2040.00,0.0006
2039.00,0.0005
2038.00,0.0003
2037.00,0.0000
2036.00,-0.0002
2035.00,-0.0003
2034.00,-0.0002
2033.00,-0.0001
2032.00,-0.0001
2031.00,-0.0002
2030.00,-0.0005
2029.00,-0.0006
2028.00,-0.0007
2027.00,-0.0005
2026.00,-0.0003
2025.00,-0.0001
2024.00,0.0001
2023.00,0.0001
2022.00,-0.0002
2021.00,-0.0006
2020.00,-0.0011
2019.00,-0.0015
2018.00,-0.0016
2017.00,-0.0014
2016.00,-0.0011
2015.00,-0.0009
2014.00,-0.0008
2013.00,-0.0007
2012.00,-0.0007
2011.00,-0.0007
2010.00,-0.0008
2009.00,-0.0008
2008.00,-0.0007
2007.00,-0.0007
2006.00,-0.0007
2005.00,-0.0006
2004.00,-0.0004
2003.00,-0.0003
2002.00,-0.0003
2001.00,-0.0004
2000.00,-0.0005
1999.00,-0.0006
1998.00,-0.0005
1997.00,-0.0004
1996.00,-0.0003
1995.00,-0.0003
1994.00,-0.0005
1993.00,-0.0007
1992.00,-0.0008
1991.00,-0.0008
1990.00,-0.0006
1989.00,-0.0003
1988.00,0.0001
1987.00,0.0005
1986.00,0.0008
1985.00,0.0011
1984.00,0.0013
1983.00,0.0015
1982.00,0.0017
1981.00,0.0018
1980.00,0.0015
1979.00,0.0010
1978.00,0.0004
1977.00,0.0000
1976.00,-0.0001
1975.00,-0.0002
1974.00,-0.0002
1973.00,-0.0003
1972.00,-0.0006
1971.00,-0.0010
1970.00,-0.0014
1969.00,-0.0015
1968.00,-0.0013
1967.00,-0.0012
1966.00,-0.0011
1965.00,-0.0011
1964.00,-0.0010
1963.00,-0.0009
1962.00,-0.0008
1961.00,-0.0008
1960.00,-0.0009
1959.00,-0.0011
1958.00,-0.0012
1957.00,-0.0012
1956.00,-0.0012
1955.00,-0.0012
1954.00,-0.0011
1953.00,-0.0011
1952.00,-0.0012
1951.00,-0.0013
1950.00,-0.0014
1949.00,-0.0014
1948.00,-0.0013
1947.00,-0.0012
1946.00,-0.0012
1945.00,-0.0012
1944.00,-0.0010
1943.00,-0.0008
1942.00,-0.0006
1941.00,-0.0005
1940.00,-0.0005
1939.00,-0.0006
1938.00,-0.0007
1937.00,-0.0007
1936.00,-0.0007
1935.00,-0.0007
1934.00,-0.0007
1933.00,-0.0006
1932.00,-0.0005
1931.00,-0.0005
1930.00,-0.0005
1929.00,-0.0005
1928.00,-0.0003
1927.00,-0.0001
1926.00,-0.0000
1925.00,-0.0000
1924.00,-0.0001
1923.00,-0.0001
1922.00,-0.0001
1921.00,-0.0000
1920.00,-0.0000
1919.00,0.0000
1918.00,0.0001
1917.00,0.0001
1916.00,0.0002
1915.00,0.0003
1914.00,0.0004
1913.00,0.0005
1912.00,0.0006
1911.00,0.0006
1910.00,0.0005
1909.00,0.0003
1908.00,0.0002
1907.00,0.0002
1906.00,0.0002
1905.00,0.0002
1904.00,0.0002
1903.00,0.0004
1902.00,0.0006
1901.00,0.0007
1900.00,0.0007
1899.00,0.0007
1898.00,0.0006
1897.00,0.0006
1896.00,0.0006
1895.00,0.0007
1894.00,0.0007
1893.00,0.0006
1892.00,0.0005
1891.00,0.0005
1890.00,0.0004
1889.00,0.0005
1888.00,0.0005
1887.00,0.0005
1886.00,0.0004
1885.00,0.0004
1884.00,0.0003
1883.00,0.0003
1882.00,0.0002
1881.00,0.0002
1880.00,0.0002
1879.00,0.0003
1878.00,0.0004
1877.00,0.0004
1876.00,0.0004
1875.00,0.0004
1874.00,0.0004
1873.00,0.0005
1872.00,0.0007
1871.00,0.0007
1870.00,0.0008
1869.00,0.0007
1868.00,0.0007
1867.00,0.0007
1866.00,0.0007
1865.00,0.0007
1864.00,0.0007
1863.00,0.0007
1862.00,0.0007
1861.00,0.0008
1860.00,0.0008
1859.00,0.0008
1858.00,0.0007
1857.00,0.0006
1856.00,0.0006
1855.00,0.0006
1854.00,0.0006
1853.00,0.0006
1852.00,0.0007
1851.00,0.0007
1850.00,0.0007
1849.00,0.0006
1848.00,0.0006
1847.00,0.0006
1846.00,0.0006
1845.00,0.0007
1844.00,0.0007
1843.00,0.0007
1842.00,0.0007
1841.00,0.0008
1840.00,0.0008
1839.00,0.0008
1838.00,0.0007
1837.00,0.0007
1836.00,0.0007
1835.00,0.0008
1834.00,0.0008
1833.00,0.0009
1832.00,0.0009
1831.00,0.0009
1830.00,0.0009
1829.00,0.0009
1828.00,0.0008
1827.00,0.0008
1826.00,0.0008
1825.00,0.0008
1824.00,0.0008
1823.00,0.0008
1822.00,0.0008
1821.00,0.0007
1820.00,0.0007
1819.00,0.0007
1818.00,0.0006
1817.00,0.0005
1816.00,0.0005
1815.00,0.0006
1814.00,0.0007
1813.00,0.0008
1812.00,0.0008
1811.00,0.0009
1810.00,0.0010
1809.00,0.0010
1808.00,0.0010
1807.00,0.0011
1806.00,0.0011
1805.00,0.0011
1804.00,0.0011
1803.00,0.0012
1802.00,0.0012
1801.00,0.0012
1800.00,0.0013
1799.00,0.0014
1798.00,0.0014
1797.00,0.0014
1796.00,0.0014
1795.00,0.0014
1794.00,0.0014
1793.00,0.0015
1792.00,0.0015
1791.00,0.0015
1790.00,0.0014
1789.00,0.0014
1788.00,0.0014
1787.00,0.0014
1786.00,0.0014
1785.00,0.0014
1784.00,0.0014
1783.00,0.0014
1782.00,0.0014
1781.00,0.0015
1780.00,0.0015
1779.00,0.0014
1778.00,0.0014
1777.00,0.0014
1776.00,0.0014
1775.00,0.0014
1774.00,0.0015
1773.00,0.0015
1772.00,0.0015
1771.00,0.0015
1770.00,0.0016
1769.00,0.0017
1768.00,0.0017
1767.00,0.0018
1766.00,0.0018
1765.00,0.0019
1764.00,0.0019
1763.00,0.0019
1762.00,0.0020
1761.00,0.0020
1760.00,0.0020
1759.00,0.0020
1758.00,0.0020
1757.00,0.0020
1756.00,0.0021
1755.00,0.0022
1754.00,0.0022
1753.00,0.0023
1752.00,0.0023
1751.00,0.0024
1750.00,0.0024
1749.00,0.0025
1748.00,0.0026
1747.00,0.0026
1746.00,0.0026
1745.00,0.0026
1744.00,0.0026
1743.00,0.0027
1742.00,0.0027
1741.00,0.0027
1740.00,0.0027
1739.00,0.0026
1738.00,0.0025
1737.00,0.0025
1736.00,0.0025
1735.00,0.0025
1734.00,0.0026
1733.00,0.0026
1732.00,0.0026
1731.00,0.0026
1730.00,0.0025
1729.00,0.0026
1728.00,0.0026
1727.00,0.0026
1726.00,0.0027
1725.00,0.0028
1724.00,0.0028
1723.00,0.0028
1722.00,0.0029
1721.00,0.0029
1720.00,0.0029
1719.00,0.0028
1718.00,0.0028
1717.00,0.0027
1716.00,0.0027
1715.00,0.0026
1714.00,0.0026
1713.00,0.0027
1712.00,0.0027
1711.00,0.0028
1710.00,0.0029
1709.00,0.0029
1708.00,0.0030
1707.00,0.0030
1706.00,0.0030
1705.00,0.0029
1704.00,0.0030
1703.00,0.0030
1702.00,0.0031
1701.00,0.0032
1700.00,0.0033
1699.00,0.0033
1698.00,0.0032
1697.00,0.0032
1696.00,0.0033
1695.00,0.0034
1694.00,0.0034
1693.00,0.0035
1692.00,0.0035
1691.00,0.0035
1690.00,0.0035
1689.00,0.0035
1688.00,0.0035
1687.00,0.0035
1686.00,0.0034
1685.00,0.0034
1684.00,0.0035
1683.00,0.0035
1682.00,0.0035
1681.00,0.0036
1680.00,0.0036
1679.00,0.0037
1678.00,0.0037
1677.00,0.0037
1676.00,0.0038
1675.00,0.0038
1674.00,0.0037
1673.00,0.0038
1672.00,0.0038
1671.00,0.0039
1670.00,0.0039
1669.00,0.0040
1668.00,0.0041
1667.00,0.0042
1666.00,0.0042
1665.00,0.0043
1664.00,0.0043
1663.00,0.0044
1662.00,0.0043
1661.00,0.0043
1660.00,0.0043
1659.00,0.0044
1658.00,0.0044
1657.00,0.0045
1656.00,0.0045
1655.00,0.0045
1654.00,0.0045
1653.00,0.0047
1652.00,0.0048
1651.00,0.0049
1650.00,0.0049
1649.00,0.0049
1648.00,0.0049
1647.00,0.0050
1646.00,0.0050
1645.00,0.0050
1644.00,0.0050
1643.00,0.0050
1642.00,0.0050
1641.00,0.0050
1640.00,0.0051
1639.00,0.0051
1638.00,0.0051
1637.00,0.0051
1636.00,0.0051
1635.00,0.0051
1634.00,0.0051
1633.00,0.0051
1632.00,0.0050
1631.00,0.0050
1630.00,0.0050
1629.00,0.0050
1628.00,0.0050
1627.00,0.0049
1626.00,0.0049
1625.00,0.0048
1624.00,0.0048
1623.00,0.0048
1622.00,0.0047
1621.00,0.0047
1620.00,0.0047
1619.00,0.0047
1618.00,0.0047
1617.00,0.0046
1616.00,0.0046
1615.00,0.0046
1614.00,0.0046
1613.00,0.0046
1612.00,0.0046
1611.00,0.0046
1610.00,0.0046
1609.00,0.0046
1608.00,0.0045
1607.00,0.0045
1606.00,0.0044
1605.00,0.0044
1604.00,0.0045
1603.00,0.0045
1602.00,0.0045
1601.00,0.0045
1600.00,0.0045
1599.00,0.0045
1598.00,0.0045
1597.00,0.0045
1596.00,0.0046
1595.00,0.0046
1594.00,0.0046
1593.00,0.0046
1592.00,0.0046
1591.00,0.0046
1590.00,0.0046
1589.00,0.0047
1588.00,0.0048
1587.00,0.0049
1586.00,0.0049
1585.00,0.0051
1584.00,0.0052
1583.00,0.0053
1582.00,0.0055
1581.00,0.0056
1580.00,0.0058
1579.00,0.0059
1578.00,0.0060
1577.00,0.0061
1576.00,0.0061
1575.00,0.0061
1574.00,0.0060
1573.00,0.0059
1572.00,0.0059
1571.00,0.0058
1570.00,0.0057
1569.00,0.0056
1568.00,0.0055
1567.00,0.0054
1566.00,0.0054
1565.00,0.0054
1564.00,0.0054
1563.00,0.0054
1562.00,0.0054
1561.00,0.0054
1560.00,0.0055
1559.00,0.0055
1558.00,0.0055
1557.00,0.0055
1556.00,0.0056
1555.00,0.0056
1554.00,0.0056
1553.00,0.0057
1552.00,0.0058
1551.00,0.0059
1550.00,0.0060
1549.00,0.0062
1548.00,0.0064
1547.00,0.0066
1546.00,0.0067
1545.00,0.0069
1544.00,0.0071
1543.00,0.0073
1542.00,0.0074
1541.00,0.0075
1540.00,0.0076
1539.00,0.0074
1538.00,0.0072
1537.00,0.0071
1536.00,0.0070
1535.00,0.0070
1534.00,0.0068
1533.00,0.0067
1532.00,0.0066
1531.00,0.0065
1530.00,0.0064
1529.00,0.0064
1528.00,0.0065
1527.00,0.0065
1526.00,0.0065
1525.00,0.0066
1524.00,0.0066
1523.00,0.0067
1522.00,0.0067
1521.00,0.0068
1520.00,0.0070
1519.00,0.0070
1518.00,0.0070
1517.00,0.0071
1516.00,0.0072
1515.00,0.0073
1514.00,0.0073
1513.00,0.0074
1512.00,0.0075
1511.00,0.0076
1510.00,0.0077
1509.00,0.0079
1508.00,0.0082
1507.00,0.0083
1506.00,0.0084
1505.00,0.0084
1504.00,0.0085
1503.00,0.0086
1502.00,0.0087
1501.00,0.0089
1500.00,0.0092
1499.00,0.0093
1498.00,0.0095
1497.00,0.0098
1496.00,0.0101
1495.00,0.0103
1494.00,0.0105
1493.00,0.0108
1492.00,0.0112
1491.00,0.0115
1490.00,0.0119
1489.00,0.0124
1488.00,0.0129
1487.00,0.0133
1486.00,0.0138
1485.00,0.0144
1484.00,0.0151
1483.00,0.0159
1482.00,0.0168
1481.00,0.0180
1480.00,0.0193
1479.00,0.0206
1478.00,0.0222
1477.00,0.0243
1476.00,0.0269
1475.00,0.0299
1474.00,0.0340
1473.00,0.0399
1472.00,0.0469
1471.00,0.0535
1470.00,0.0599
1469.00,0.0666
1468.00,0.0739
1467.00,0.0819
1466.00,0.0912
1465.00,0.1011
1464.00,0.1098
1463.00,0.1157
1462.00,0.1193
1461.00,0.1216
1460.00,0.1230
1459.00,0.1237
1458.00,0.1241
1457.00,0.1243
1456.00,0.1239
1455.00,0.1228
1454.00,0.1214
1453.00,0.1194
1452.00,0.1165
1451.00,0.1124
1450.00,0.1070
1449.00,0.0998
1448.00,0.0907
1447.00,0.0812
1446.00,0.0727
1445.00,0.0656
1444.00,0.0595
1443.00,0.0546
1442.00,0.0509
1441.00,0.0485
1440.00,0.0470
1439.00,0.0466
1438.00,0.0470
1437.00,0.0474
1436.00,0.0468
1435.00,0.0445
1434.00,0.0409
1433.00,0.0366
1432.00,0.0321
1431.00,0.0281
1430.00,0.0250
1429.00,0.0227
1428.00,0.0210
1427.00,0.0200
1426.00,0.0193
1425.00,0.0186
1424.00,0.0180
1423.00,0.0177
1422.00,0.0174
1421.00,0.0172
1420.00,0.0168
1419.00,0.0164
1418.00,0.0161
1417.00,0.0158
1416.00,0.0155
1415.00,0.0154
1414.00,0.0153
1413.00,0.0151
1412.00,0.0149
1411.00,0.0147
1410.00,0.0145
1409.00,0.0144
1408.00,0.0142
1407.00,0.0142
1406.00,0.0142
1405.00,0.0142
1404.00,0.0141
1403.00,0.0140
1402.00,0.0141
1401.00,0.0141
1400.00,0.0141
1399.00,0.0142
1398.00,0.0144
1397.00,0.0145
1396.00,0.0147
1395.00,0.0151
1394.00,0.0156
1393.00,0.0160
1392.00,0.0164
1391.00,0.0171
1390.00,0.0180
1389.00,0.0193
1388.00,0.0214
1387.00,0.0245
1386.00,0.0287
1385.00,0.0343
1384.00,0.0421
1383.00,0.0533
1382.00,0.0687
1381.00,0.0889
1380.00,0.1143
1379.00,0.1435
1378.00,0.1718
1377.00,0.1924
1376.00,0.1993
1375.00,0.1889
1374.00,0.1644
1373.00,0.1351
1372.00,0.1086
1371.00,0.0870
1370.00,0.0699
1369.00,0.0570
1368.00,0.0480
1367.00,0.0426
1366.00,0.0396
1365.00,0.0384
1364.00,0.0386
1363.00,0.0400
1362.00,0.0422
1361.00,0.0445
1360.00,0.0462
1359.00,0.0468
1358.00,0.0457
1357.00,0.0431
1356.00,0.0394
1355.00,0.0352
1354.00,0.0312
1353.00,0.0277
1352.00,0.0250
1351.00,0.0227
1350.00,0.0208
1349.00,0.0193
1348.00,0.0180
1347.00,0.0170
1346.00,0.0161
1345.00,0.0153
1344.00,0.0147
1343.00,0.0142
1342.00,0.0137
1341.00,0.0134
1340.00,0.0132
1339.00,0.0130
1338.00,0.0129
1337.00,0.0129
1336.00,0.0130
1335.00,0.0131
1334.00,0.0134
1333.00,0.0138
1332.00,0.0143
1331.00,0.0147
1330.00,0.0149
1329.00,0.0148
1328.00,0.0144
1327.00,0.0139
1326.00,0.0133
1325.00,0.0126
1324.00,0.0121
1323.00,0.0115
1322.00,0.0111
1321.00,0.0108
1320.00,0.0105
1319.00,0.0103
1318.00,0.0101
1317.00,0.0100
1316.00,0.0099
1315.00,0.0098
1314.00,0.0098
1313.00,0.0098
1312.00,0.0098
1311.00,0.0101
1310.00,0.0104
1309.00,0.0110
1308.00,0.0117
1307.00,0.0126
1306.00,0.0134
1305.00,0.0140
1304.00,0.0142
1303.00,0.0141
1302.00,0.0138
1301.00,0.0135
1300.00,0.0134
1299.00,0.0135
1298.00,0.0136
1297.00,0.0137
1296.00,0.0137
1295.00,0.0135
1294.00,0.0132
1293.00,0.0127
1292.00,0.0121
1291.00,0.0116
1290.00,0.0111
1289.00,0.0107
1288.00,0.0104
1287.00,0.0101
1286.00,0.0099
1285.00,0.0097
1284.00,0.0096
1283.00,0.0094
1282.00,0.0093
1281.00,0.0091
1280.00,0.0090
1279.00,0.0090
1278.00,0.0089
1277.00,0.0088
1276.00,0.0088
1275.00,0.0087
1274.00,0.0087
1273.00,0.0087
1272.00,0.0087
1271.00,0.0088
1270.00,0.0089
1269.00,0.0091
1268.00,0.0093
1267.00,0.0095
1266.00,0.0098
1265.00,0.0100
1264.00,0.0102
1263.00,0.0105
1262.00,0.0108
1261.00,0.0112
1260.00,0.0116
1259.00,0.0121
1258.00,0.0126
1257.00,0.0130
1256.00,0.0131
1255.00,0.0129
1254.00,0.0123
1253.00,0.0117
1252.00,0.0110
1251.00,0.0105
1250.00,0.0101
1249.00,0.0098
1248.00,0.0095
1247.00,0.0092
1246.00,0.0090
1245.00,0.0088
1244.00,0.0087
1243.00,0.0086
1242.00,0.0085
1241.00,0.0084
1240.00,0.0084
1239.00,0.0084
1238.00,0.0084
1237.00,0.0084
1236.00,0.0084
1235.00,0.0084
1234.00,0.0084
1233.00,0.0084
1232.00,0.0084
1231.00,0.0085
1230.00,0.0085
1229.00,0.0086
1228.00,0.0088
1227.00,0.0089
1226.00,0.0092
1225.00,0.0095
1224.00,0.0098
1223.00,0.0102
1222.00,0.0104
1221.00,0.0107
1220.00,0.0108
1219.00,0.0109
1218.00,0.0109
1217.00,0.0107
1216.00,0.0104
1215.00,0.0101
1214.00,0.0098
1213.00,0.0095
1212.00,0.0093
1211.00,0.0091
1210.00,0.0089
1209.00,0.0087
1208.00,0.0086
1207.00,0.0086
1206.00,0.0085
1205.00,0.0085
1204.00,0.0084
1203.00,0.0084
1202.00,0.0083
1201.00,0.0083
1200.00,0.0083
1199.00,0.0083
1198.00,0.0084
1197.00,0.0084
1196.00,0.0084
1195.00,0.0083
1194.00,0.0083
1193.00,0.0083
1192.00,0.0082
1191.00,0.0082
1190.00,0.0082
1189.00,0.0082
1188.00,0.0083
1187.00,0.0084
1186.00,0.0085
1185.00,0.0086
1184.00,0.0087
1183.00,0.0088
1182.00,0.0090
1181.00,0.0093
1180.00,0.0096
1179.00,0.0100
1178.00,0.0106
1177.00,0.0113
1176.00,0.0122
1175.00,0.0134
1174.00,0.0151
1173.00,0.0171
1172.00,0.0196
1171.00,0.0223
1170.00,0.0249
1169.00,0.0269
1168.00,0.0281
1167.00,0.0283
1166.00,0.0277
1165.00,0.0265
1164.00,0.0252
1163.00,0.0239
1162.00,0.0228
1161.00,0.0220
1160.00,0.0213
1159.00,0.0208
1158.00,0.0204
1157.00,0.0202
1156.00,0.0200
1155.00,0.0199
1154.00,0.0198
1153.00,0.0195
1152.00,0.0191
1151.00,0.0185
1150.00,0.0177
1149.00,0.0168
1148.00,0.0158
1147.00,0.0149
1146.00,0.0140
1145.00,0.0132
1144.00,0.0125
1143.00,0.0119
1142.00,0.0113
1141.00,0.0108
1140.00,0.0104
1139.00,0.0100
1138.00,0.0096
1137.00,0.0093
1136.00,0.0091
1135.00,0.0090
1134.00,0.0088
1133.00,0.0087
1132.00,0.0086
1131.00,0.0086
1130.00,0.0087
1129.00,0.0087
1128.00,0.0087
1127.00,0.0086
1126.00,0.0085
1125.00,0.0085
1124.00,0.0085
1123.00,0.0086
1122.00,0.0087
1121.00,0.0089
1120.00,0.0090
1119.00,0.0091
1118.00,0.0092
1117.00,0.0093
1116.00,0.0093
1115.00,0.0095
1114.00,0.0097
1113.00,0.0100
1112.00,0.0102
1111.00,0.0105
1110.00,0.0109
1109.00,0.0113
1108.00,0.0119
1107.00,0.0125
1106.00,0.0132
1105.00,0.0138
1104.00,0.0143
1103.00,0.0145
1102.00,0.0145
1101.00,0.0141
1100.00,0.0134
1099.00,0.0127
1098.00,0.0120
1097.00,0.0115
1096.00,0.0111
1095.00,0.0108
1094.00,0.0105
1093.00,0.0102
1092.00,0.0099
1091.00,0.0097
1090.00,0.0096
1089.00,0.0095
1088.00,0.0095
1087.00,0.0094
1086.00,0.0094
1085.00,0.0094
1084.00,0.0093
1083.00,0.0094
1082.00,0.0094
1081.00,0.0094
1080.00,0.0094
1079.00,0.0094
1078.00,0.0094
1077.00,0.0093
1076.00,0.0091
1075.00,0.0090
1074.00,0.0090
1073.00,0.0091
1072.00,0.0091
1071.00,0.0091
1070.00,0.0091
1069.00,0.0091
1068.00,0.0091
1067.00,0.0092
1066.00,0.0094
1065.00,0.0095
1064.00,0.0096
1063.00,0.0096
1062.00,0.0097
1061.00,0.0098
1060.00,0.0098
1059.00,0.0099
1058.00,0.0100
1057.00,0.0102
1056.00,0.0104
1055.00,0.0106
1054.00,0.0108
1053.00,0.0110
1052.00,0.0113
1051.00,0.0116
1050.00,0.0119
1049.00,0.0123
1048.00,0.0128
1047.00,0.0133
1046.00,0.0137
1045.00,0.0139
1044.00,0.0140
1043.00,0.0139
1042.00,0.0138
1041.00,0.0137
1040.00,0.0135
1039.00,0.0133
1038.00,0.0131
1037.00,0.0130
1036.00,0.0130
1035.00,0.0129
1034.00,0.0129
1033.00,0.0128
1032.00,0.0128
1031.00,0.0128
1030.00,0.0128
1029.00,0.0128
1028.00,0.0129
1027.00,0.0129
1026.00,0.0131
1025.00,0.0133
1024.00,0.0135
1023.00,0.0137
1022.00,0.0140
1021.00,0.0141
1020.00,0.0143
1019.00,0.0144
1018.00,0.0146
1017.00,0.0147
1016.00,0.0147
1015.00,0.0148
1014.00,0.0147
1013.00,0.0147
1012.00,0.0146
1011.00,0.0146
1010.00,0.0146
1009.00,0.0146
1008.00,0.0148
1007.00,0.0151
1006.00,0.0156
1005.00,0.0164
1004.00,0.0176
1003.00,0.0194
1002.00,0.0217
1001.00,0.0247
1000.00,0.0277
999.00,0.0301
998.00,0.0311
997.00,0.0304
996.00,0.0281
995.00,0.0249
994.00,0.0217
993.00,0.0189
992.00,0.0167
991.00,0.0151
990.00,0.0139
989.00,0.0131
988.00,0.0126
987.00,0.0123
986.00,0.0122
985.00,0.0124
984.00,0.0128
983.00,0.0134
982.00,0.0144
981.00,0.0158
980.00,0.0177
979.00,0.0202
978.00,0.0234
977.00,0.0270
976.00,0.0308
975.00,0.0343
974.00,0.0368
973.00,0.0374
972.00,0.0358
971.00,0.0324
970.00,0.0281
969.00,0.0238
968.00,0.0202
967.00,0.0175
966.00,0.0156
965.00,0.0142
964.00,0.0131
963.00,0.0122
962.00,0.0115
961.00,0.0108
960.00,0.0104
959.00,0.0100
958.00,0.0098
957.00,0.0096
956.00,0.0093
955.00,0.0091
954.00,0.0090
953.00,0.0088
952.00,0.0088
951.00,0.0088
950.00,0.0088
949.00,0.0089
948.00,0.0090
947.00,0.0091
946.00,0.0092
945.00,0.0094
944.00,0.0096
943.00,0.0099
942.00,0.0101
941.00,0.0103
940.00,0.0103
939.00,0.0101
938.00,0.0096
937.00,0.0090
936.00,0.0085
935.00,0.0081
934.00,0.0079
933.00,0.0076
932.00,0.0074
931.00,0.0073
930.00,0.0072
929.00,0.0070
928.00,0.0070
927.00,0.0070
926.00,0.0070
925.00,0.0070
924.00,0.0070
923.00,0.0070
922.00,0.0070
921.00,0.0070
920.00,0.0070
919.00,0.0071
918.00,0.0072
917.00,0.0073
916.00,0.0074
915.00,0.0075
914.00,0.0076
913.00,0.0078
912.00,0.0080
911.00,0.0082
910.00,0.0084
909.00,0.0086
908.00,0.0090
907.00,0.0096
906.00,0.0104
905.00,0.0115
904.00,0.0129
903.00,0.0147
902.00,0.0166
901.00,0.0183
900.00,0.0194
899.00,0.0195
898.00,0.0186
897.00,0.0169
896.00,0.0150
895.00,0.0131
894.00,0.0116
893.00,0.0105
892.00,0.0097
891.00,0.0091
890.00,0.0087
889.00,0.0084
888.00,0.0082
887.00,0.0082
886.00,0.0082
885.00,0.0082
884.00,0.0082
883.00,0.0083
882.00,0.0084
881.00,0.0085
880.00,0.0086
879.00,0.0089
878.00,0.0092
877.00,0.0096
876.00,0.0099
875.00,0.0101
874.00,0.0102
873.00,0.0101
872.00,0.0099
871.00,0.0097
870.00,0.0094
869.00,0.0091
868.00,0.0089
867.00,0.0087
866.00,0.0087
865.00,0.0087
864.00,0.0088
863.00,0.0089
862.00,0.0090
861.00,0.0091
860.00,0.0092
859.00,0.0094
858.00,0.0095
857.00,0.0097
856.00,0.0098
855.00,0.0099
854.00,0.0100
853.00,0.0102
852.00,0.0105
851.00,0.0108
850.00,0.0111
849.00,0.0116
848.00,0.0123
847.00,0.0133
846.00,0.0149
845.00,0.0174
844.00,0.0210
843.00,0.0252
842.00,0.0286
841.00,0.0295
840.00,0.0276
839.00,0.0237
838.00,0.0196
837.00,0.0163
836.00,0.0142
835.00,0.0129
834.00,0.0122
833.00,0.0117
832.00,0.0114
831.00,0.0111
830.00,0.0109
829.00,0.0108
828.00,0.0106
827.00,0.0106
826.00,0.0106
825.00,0.0106
824.00,0.0106
823.00,0.0106
822.00,0.0107
821.00,0.0109
820.00,0.0113
819.00,0.0117
818.00,0.0122
817.00,0.0128
816.00,0.0136
815.00,0.0148
814.00,0.0163
813.00,0.0183
812.00,0.0204
811.00,0.0225
810.00,0.0240
809.00,0.0247
808.00,0.0242
807.00,0.0226
806.00,0.0205
805.00,0.0185
804.00,0.0169
803.00,0.0157
802.00,0.0148
801.00,0.0140
800.00,0.0132
799.00,0.0125
798.00,0.0120
797.00,0.0114
796.00,0.0110
795.00,0.0106
794.00,0.0104
793.00,0.0102
792.00,0.0099
791.00,0.0095
790.00,0.0092
789.00,0.0090
788.00,0.0089
787.00,0.0087
786.00,0.0085
785.00,0.0082
784.00,0.0079
783.00,0.0076
782.00,0.0075
781.00,0.0073
780.00,0.0072
779.00,0.0072
778.00,0.0072
777.00,0.0073
776.00,0.0073
775.00,0.0072
774.00,0.0071
773.00,0.0071
772.00,0.0071
771.00,0.0071
770.00,0.0072
769.00,0.0072
768.00,0.0073
767.00,0.0074
766.00,0.0076
765.00,0.0077
764.00,0.0078
763.00,0.0079
762.00,0.0078
761.00,0.0077
760.00,0.0076
759.00,0.0076
758.00,0.0077
757.00,0.0079
756.00,0.0081
755.00,0.0083
754.00,0.0084
753.00,0.0084
752.00,0.0085
751.00,0.0086
750.00,0.0087
749.00,0.0088
748.00,0.0088
747.00,0.0089
746.00,0.0092
745.00,0.0093
744.00,0.0095
743.00,0.0096
742.00,0.0097
741.00,0.0100
740.00,0.0103
739.00,0.0106
738.00,0.0110
737.00,0.0113
736.00,0.0115
735.00,0.0119
734.00,0.0124
733.00,0.0130
732.00,0.0139
731.00,0.0147
730.00,0.0153
729.00,0.0156
728.00,0.0155
727.00,0.0154
726.00,0.0154
725.00,0.0157
724.00,0.0163
723.00,0.0172
722.00,0.0180
721.00,0.0186
720.00,0.0186
719.00,0.0179
718.00,0.0169
717.00,0.0158
716.00,0.0148
715.00,0.0140
714.00,0.0134
713.00,0.0128
712.00,0.0123
711.00,0.0119
710.00,0.0117
709.00,0.0114
708.00,0.0111
707.00,0.0108
706.00,0.0106
705.00,0.0105
704.00,0.0105
703.00,0.0104
702.00,0.0102
701.00,0.0100
700.00,0.0100
699.00,0.0102
698.00,0.0104
697.00,0.0105
696.00,0.0105
695.00,0.0104
694.00,0.0103
693.00,0.0103
692.00,0.0102
691.00,0.0102
690.00,0.0102
689.00,0.0103
688.00,0.0104
687.00,0.0105
686.00,0.0105
685.00,0.0104
684.00,0.0103
683.00,0.0103
682.00,0.0104
681.00,0.0103
680.00,0.0102
679.00,0.0101
678.00,0.0101
677.00,0.0103
676.00,0.0106
675.00,0.0108
674.00,0.0109
673.00,0.0110
672.00,0.0109
671.00,0.0108
670.00,0.0107
669.00,0.0108
668.00,0.0110
667.00,0.0111
666.00,0.0108
665.00,0.0104
664.00,0.0102
663.00,0.0102
662.00,0.0103
661.00,0.0104
660.00,0.0105
659.00,0.0104
658.00,0.0103
657.00,0.0102
656.00,0.0101
655.00,0.0100
654.00,0.0098
653.00,0.0096
652.00,0.0092
651.00,0.0089
650.00,0.0089
649.00,0.0092
648.00,0.0096
647.00,0.0099
646.00,0.0099
645.00,0.0097
644.00,0.0094
643.00,0.0092
642.00,0.0092
641.00,0.0093
640.00,0.0093
639.00,0.0093
638.00,0.0093
637.00,0.0093
636.00,0.0094
635.00,0.0094
634.00,0.0094
633.00,0.0094
632.00,0.0094
631.00,0.0094
630.00,0.0094
629.00,0.0093
628.00,0.0093
627.00,0.0094
626.00,0.0096
625.00,0.0098
624.00,0.0098
623.00,0.0095
622.00,0.0092
621.00,0.0088
620.00,0.0086
619.00,0.0087
618.00,0.0090
617.00,0.0093
616.00,0.0094
615.00,0.0093
614.00,0.0091
613.00,0.0090
612.00,0.0090
611.00,0.0092
610.00,0.0094
609.00,0.0094
608.00,0.0093
607.00,0.0091
606.00,0.0091
605.00,0.0092
604.00,0.0093
603.00,0.0093
602.00,0.0092
601.00,0.0090
600.00,0.0088
599.00,0.0087
598.00,0.0090
597.00,0.0092
596.00,0.0092
595.00,0.0089
594.00,0.0085
593.00,0.0084
592.00,0.0087
591.00,0.0092
590.00,0.0097
589.00,0.0099
588.00,0.0099
587.00,0.0097
586.00,0.0094
585.00,0.0092
584.00,0.0092
583.00,0.0092
582.00,0.0094
581.00,0.0095
580.00,0.0094
579.00,0.0094
578.00,0.0093
577.00,0.0094
576.00,0.0096
575.00,0.0098
574.00,0.0098
573.00,0.0095
572.00,0.0091
571.00,0.0088
570.00,0.0087
569.00,0.0089
568.00,0.0092
567.00,0.0093
566.00,0.0093
565.00,0.0093
564.00,0.0094
563.00,0.0095
562.00,0.0096
561.00,0.0096
560.00,0.0095
559.00,0.0095
558.00,0.0098
557.00,0.0102
556.00,0.0104
555.00,0.0104
554.00,0.0102
553.00,0.0101
552.00,0.0100
551.00,0.0098
550.00,0.0097
549.00,0.0096
548.00,0.0097
547.00,0.0098
546.00,0.0100
545.00,0.0101
544.00,0.0101
543.00,0.0101
542.00,0.0103
541.00,0.0108
540.00,0.0115
539.00,0.0120
538.00,0.0122
537.00,0.0121
536.00,0.0120
535.00,0.0122
534.00,0.0126
533.00,0.0131
532.00,0.0134
531.00,0.0135
530.00,0.0134
529.00,0.0133
528.00,0.0130
527.00,0.0124
526.00,0.0116
525.00,0.0111
524.00,0.0109
523.00,0.0108
522.00,0.0106
521.00,0.0102
520.00,0.0099
519.00,0.0098
518.00,0.0099
517.00,0.0101
516.00,0.0100
515.00,0.0096
514.00,0.0090
513.00,0.0085
512.00,0.0082
511.00,0.0080
510.00,0.0080
509.00,0.0083
508.00,0.0089
507.00,0.0095
506.00,0.0099
505.00,0.0100
504.00,0.0099
503.00,0.0097
502.00,0.0097
501.00,0.0097
500.00,0.0095
499.00,0.0092
498.00,0.0090
497.00,0.0091
496.00,0.0094
495.00,0.0098
494.00,0.0101
493.00,0.0104
492.00,0.0107
491.00,0.0107
490.00,0.0104
489.00,0.0100
488.00,0.0098
487.00,0.0099
486.00,0.0101
485.00,0.0104
484.00,0.0106
483.00,0.0106
482.00,0.0105
481.00,0.0103
480.00,0.0104
479.00,0.0110
478.00,0.0120
477.00,0.0129
476.00,0.0131
475.00,0.0124
474.00,0.0114
473.00,0.0112
472.00,0.0121
471.00,0.0135
470.00,0.0145
469.00,0.0150
468.00,0.0152
467.00,0.0157
466.00,0.0169
465.00,0.0184
464.00,0.0199
463.00,0.0208
462.00,0.0214
461.00,0.0218
460.00,0.0222
459.00,0.0222
458.00,0.0218
457.00,0.0211
456.00,0.0204
455.00,0.0196
454.00,0.0189
453.00,0.0182
452.00,0.0175
451.00,0.0169
450.00,0.0165
