Created as New Dataset,Sample 076 By Administrator Date Wednesday, September 10 2025
cm-1,A
4000.00,0.0017
3999.00,0.0017
3998.00,0.0017
3997.00,0.0017
3996.00,0.0017
3995.00,0.0016
3994.00,0.0016
3993.00,0.0016
3992.00,0.0016
3991.00,0.0016
3990.00,0.0016
3989.00,0.0016
3988.00,0.0016
3987.00,0.0016
3986.00,0.0016
3985.00,0.0016
3984.00,0.0016
3983.00,0.0015
3982.00,0.0015
3981.00,0.0015
3980.00,0.0015
3979.00,0.0015
3978.00,0.0015
3977.00,0.0014
3976.00,0.0014
3975.00,0.0015
3974.00,0.0015
3973.00,0.0015
3972.00,0.0015
3971.00,0.0016
3970.00,0.0016
3969.00,0.0015
3968.00,0.0015
3967.00,0.0015
3966.00,0.0015
3965.00,0.0015
3964.00,0.0015
3963.00,0.0015
3962.00,0.0015
3961.00,0.0014
3960.00,0.0014
3959.00,0.0013
3958.00,0.0013
3957.00,0.0013
3956.00,0.0013
3955.00,0.0014
3954.00,0.0014
3953.00,0.0014
3952.00,0.0014
3951.00,0.0014
3950.00,0.0014
3949.00,0.0014
3948.00,0.0015
3947.00,0.0015
3946.00,0.0015
3945.00,0.0015
3944.00,0.0015
3943.00,0.0014
3942.00,0.0015
3941.00,0.0015
3940.00,0.0015
3939.00,0.0015
3938.00,0.0015
3937.00,0.0015
3936.00,0.0015
3935.00,0.0015
3934.00,0.0015
3933.00,0.0015
3932.00,0.0015
3931.00,0.0015
3930.00,0.0015
3929.00,0.0016
3928.00,0.0016
3927.00,0.0016
3926.00,0.0016
3925.00,0.0016
3924.00,0.0016
3923.00,0.0016
3922.00,0.0015
3921.00,0.0015
3920.00,0.0015
3919.00,0.0015
3918.00,0.0015
3917.00,0.0014
3916.00,0.0014
3915.00,0.0014
3914.00,0.0014
3913.00,0.0014
3912.00,0.0014
3911.00,0.0015
3910.00,0.0015
3909.00,0.0015
3908.00,0.0015
3907.00,0.0015
3906.00,0.0016
3905.00,0.0016
3904.00,0.0016
3903.00,0.0016
3902.00,0.0015
3901.00,0.0014
3900.00,0.0014
3899.00,0.0014
3898.00,0.0014
3897.00,0.0014
3896.00,0.0014
3895.00,0.0014
3894.00,0.0014
3893.00,0.0014
3892.00,0.0014
3891.00,0.0014
3890.00,0.0014
3889.00,0.0015
3888.00,0.0015
3887.00,0.0015
3886.00,0.0015
3885.00,0.0014
3884.00,0.0014
3883.00,0.0014
3882.00,0.0014
3881.00,0.0014
3880.00,0.0015
3879.00,0.0015
3878.00,0.0015
3877.00,0.0015
3876.00,0.0015
3875.00,0.0014
3874.00,0.0014
3873.00,0.0014
3872.00,0.0014
3871.00,0.0014
3870.00,0.0013
3869.00,0.0013
3868.00,0.0013
3867.00,0.0013
3866.00,0.0013
3865.00,0.0013
3864.00,0.0013
3863.00,0.0013
3862.00,0.0014
3861.00,0.0014
3860.00,0.0014
3859.00,0.0014
3858.00,0.0014
3857.00,0.0014
3856.00,0.0015
3855.00,0.0014
3854.00,0.0014
3853.00,0.0013
3852.00,0.0013
3851.00,0.0013
3850.00,0.0013
3849.00,0.0013
3848.00,0.0013
3847.00,0.0014
3846.00,0.0014
3845.00,0.0015
3844.00,0.0015
3843.00,0.0014
3842.00,0.0014
3841.00,0.0014
3840.00,0.0014
3839.00,0.0014
3838.00,0.0014
3837.00,0.0014
3836.00,0.0014
3835.00,0.0013
3834.00,0.0013
3833.00,0.0013
3832.00,0.0013
3831.00,0.0013
3830.00,0.0014
3829.00,0.0014
3828.00,0.0014
3827.00,0.0014
3826.00,0.0014
3825.00,0.0014
3824.00,0.0014
3823.00,0.0014
3822.00,0.0013
3821.00,0.0013
3820.00,0.0013
3819.00,0.0013
3818.00,0.0013
3817.00,0.0012
3816.00,0.0012
3815.00,0.0012
3814.00,0.0012
3813.00,0.0013
3812.00,0.0013
3811.00,0.0014
3810.00,0.0014
3809.00,0.0015
3808.00,0.0015
3807.00,0.0014
3806.00,0.0014
3805.00,0.0013
3804.00,0.0013
3803.00,0.0013
3802.00,0.0012
3801.00,0.0012
3800.00,0.0012
3799.00,0.0013
3798.00,0.0013
3797.00,0.0014
3796.00,0.0014
3795.00,0.0014
3794.00,0.0014
3793.00,0.0014
3792.00,0.0015
3791.00,0.0015
3790.00,0.0015
3789.00,0.0014
3788.00,0.0014
3787.00,0.0014
3786.00,0.0014
3785.00,0.0015
3784.00,0.0015
3783.00,0.0015
3782.00,0.0014
3781.00,0.0014
3780.00,0.0014
3779.00,0.0014
3778.00,0.0014
3777.00,0.0014
3776.00,0.0014
3775.00,0.0014
3774.00,0.0014
3773.00,0.0014
3772.00,0.0014
3771.00,0.0014
3770.00,0.0015
3769.00,0.0015
3768.00,0.0015
3767.00,0.0015
3766.00,0.0015
3765.00,0.0015
3764.00,0.0015
3763.00,0.0015
3762.00,0.0015
3761.00,0.0015
3760.00,0.0015
3759.00,0.0014
3758.00,0.0014
3757.00,0.0013
3756.00,0.0013
3755.00,0.0013
3754.00,0.0014
3753.00,0.0014
3752.00,0.0014
3751.00,0.0014
3750.00,0.0013
3749.00,0.0013
3748.00,0.0013
3747.00,0.0014
3746.00,0.0014
3745.00,0.0014
3744.00,0.0013
3743.00,0.0013
3742.00,0.0014
3741.00,0.0014
3740.00,0.0013
3739.00,0.0013
3738.00,0.0012
3737.00,0.0012
3736.00,0.0011
3735.00,0.0011
3734.00,0.0011
3733.00,0.0011
3732.00,0.0011
3731.00,0.0010
3730.00,0.0011
3729.00,0.0011
3728.00,0.0011
3727.00,0.0012
3726.00,0.0012
3725.00,0.0012
3724.00,0.0013
3723.00,0.0013
3722.00,0.0014
3721.00,0.0014
3720.00,0.0014
3719.00,0.0014
3718.00,0.0014
3717.00,0.0014
3716.00,0.0014
3715.00,0.0014
3714.00,0.0013
3713.00,0.0013
3712.00,0.0012
3711.00,0.0012
3710.00,0.0012
3709.00,0.0012
3708.00,0.0012
3707.00,0.0012
3706.00,0.0012
3705.00,0.0012
3704.00,0.0013
3703.00,0.0013
3702.00,0.0012
3701.00,0.0011
3700.00,0.0011
3699.00,0.0011
3698.00,0.0011
3697.00,0.0011
3696.00,0.0011
3695.00,0.0011
3694.00,0.0011
3693.00,0.0011
3692.00,0.0011
3691.00,0.0012
3690.00,0.0012
3689.00,0.0013
3688.00,0.0013
3687.00,0.0013
3686.00,0.0013
3685.00,0.0013
3684.00,0.0013
3683.00,0.0013
3682.00,0.0013
3681.00,0.0013
3680.00,0.0014
3679.00,0.0014
3678.00,0.0014
3677.00,0.0014
3676.00,0.0014
3675.00,0.0013
3674.00,0.0013
3673.00,0.0012
3672.00,0.0012
3671.00,0.0011
3670.00,0.0011
3669.00,0.0011
3668.00,0.0012
3667.00,0.0012
3666.00,0.0012
3665.00,0.0012
3664.00,0.0013
3663.00,0.0013
3662.00,0.0013
3661.00,0.0014
3660.00,0.0014
3659.00,0.0014
3658.00,0.0014
3657.00,0.0014
3656.00,0.0014
3655.00,0.0014
3654.00,0.0014
3653.00,0.0014
3652.00,0.0014
3651.00,0.0014
3650.00,0.0015
3649.00,0.0015
3648.00,0.0014
3647.00,0.0015
3646.00,0.0015
3645.00,0.0015
3644.00,0.0015
3643.00,0.0015
3642.00,0.0015
3641.00,0.0015
3640.00,0.0015
3639.00,0.0015
3638.00,0.0015
3637.00,0.0016
3636.00,0.0016
3635.00,0.0015
3634.00,0.0015
3633.00,0.0015
3632.00,0.0015
3631.00,0.0016
3630.00,0.0017
3629.00,0.0017
3628.00,0.0017
3627.00,0.0017
3626.00,0.0016
3625.00,0.0017
3624.00,0.0017
3623.00,0.0017
3622.00,0.0017
3621.00,0.0017
3620.00,0.0017
3619.00,0.0018
3618.00,0.0018
3617.00,0.0018
3616.00,0.0018
3615.00,0.0018
3614.00,0.0018
3613.00,0.0018
3612.00,0.0019
3611.00,0.0019
3610.00,0.0019
3609.00,0.0019
3608.00,0.0018
3607.00,0.0018
3606.00,0.0018
3605.00,0.0018
3604.00,0.0019
3603.00,0.0019
3602.00,0.0019
3601.00,0.0019
3600.00,0.0019
3599.00,0.0019
3598.00,0.0019
3597.00,0.0019
3596.00,0.0019
3595.00,0.0019
3594.00,0.0019
3593.00,0.0020
3592.00,0.0021
3591.00,0.0021
3590.00,0.0022
3589.00,0.0022
3588.00,0.0021
3587.00,0.0021
3586.00,0.0020
3585.00,0.0020
3584.00,0.0021
3583.00,0.0021
3582.00,0.0022
3581.00,0.0022
3580.00,0.0022
3579.00,0.0022
3578.00,0.0022
3577.00,0.0022
3576.00,0.0022
3575.00,0.0022
3574.00,0.0023
3573.00,0.0023
3572.00,0.0023
3571.00,0.0023
3570.00,0.0024
3569.00,0.0024
3568.00,0.0025
3567.00,0.0025
3566.00,0.0025
3565.00,0.0025
3564.00,0.0025
3563.00,0.0025
3562.00,0.0025
3561.00,0.0025
3560.00,0.0026
3559.00,0.0026
3558.00,0.0026
3557.00,0.0026
3556.00,0.0026
3555.00,0.0026
3554.00,0.0027
3553.00,0.0028
3552.00,0.0028
3551.00,0.0028
3550.00,0.0028
3549.00,0.0029
3548.00,0.0028
3547.00,0.0028
3546.00,0.0028
3545.00,0.0028
3544.00,0.0028
3543.00,0.0028
3542.00,0.0029
3541.00,0.0029
3540.00,0.0030
3539.00,0.0030
3538.00,0.0030
3537.00,0.0030
3536.00,0.0030
3535.00,0.0030
3534.00,0.0031
3533.00,0.0031
3532.00,0.0031
3531.00,0.0032
3530.00,0.0032
3529.00,0.0032
3528.00,0.0032
3527.00,0.0031
3526.00,0.0031
3525.00,0.0031
3524.00,0.0031
3523.00,0.0032
3522.00,0.0032
3521.00,0.0033
3520.00,0.0033
3519.00,0.0033
3518.00,0.0033
3517.00,0.0034
3516.00,0.0034
3515.00,0.0034
3514.00,0.0033
3513.00,0.0033
3512.00,0.0033
3511.00,0.0033
3510.00,0.0034
3509.00,0.0034
3508.00,0.0034
3507.00,0.0034
3506.00,0.0034
3505.00,0.0035
3504.00,0.0035
3503.00,0.0035
3502.00,0.0036
3501.00,0.0036
3500.00,0.0036
3499.00,0.0037
3498.00,0.0037
3497.00,0.0037
3496.00,0.0037
3495.00,0.0037
3494.00,0.0037
3493.00,0.0037
3492.00,0.0037
3491.00,0.0037
3490.00,0.0037
3489.00,0.0037
3488.00,0.0037
3487.00,0.0038
3486.00,0.0038
3485.00,0.0038
3484.00,0.0039
3483.00,0.0039
3482.00,0.0039
3481.00,0.0040
3480.00,0.0039
3479.00,0.0039
3478.00,0.0039
3477.00,0.0039
3476.00,0.0039
3475.00,0.0039
3474.00,0.0039
3473.00,0.0040
3472.00,0.0040
3471.00,0.0040
3470.00,0.0041
3469.00,0.0041
3468.00,0.0041
3467.00,0.0041
3466.00,0.0041
3465.00,0.0042
3464.00,0.0042
3463.00,0.0042
3462.00,0.0042
3461.00,0.0042
3460.00,0.0042
3459.00,0.0042
3458.00,0.0043
3457.00,0.0043
3456.00,0.0043
3455.00,0.0043
3454.00,0.0043
3453.00,0.0043
3452.00,0.0043
3451.00,0.0044
3450.00,0.0043
3449.00,0.0043
3448.00,0.0044
3447.00,0.0044
3446.00,0.0045
3445.00,0.0045
3444.00,0.0045
3443.00,0.0045
3442.00,0.0045
3441.00,0.0045
3440.00,0.0046
3439.00,0.0046
3438.00,0.0047
3437.00,0.0047
3436.00,0.0047
3435.00,0.0047
3434.00,0.0046
3433.00,0.0046
3432.00,0.0045
3431.00,0.0045
3430.00,0.0046
3429.00,0.0047
3428.00,0.0047
3427.00,0.0048
3426.00,0.0048
3425.00,0.0049
3424.00,0.0049
3423.00,0.0049
3422.00,0.0049
3421.00,0.0049
3420.00,0.0049
3419.00,0.0049
3418.00,0.0049
3417.00,0.0049
3416.00,0.0049
3415.00,0.0049
3414.00,0.0049
3413.00,0.0049
3412.00,0.0049
3411.00,0.0050
3410.00,0.0050
3409.00,0.0050
3408.00,0.0049
3407.00,0.0049
3406.00,0.0049
3405.00,0.0049
3404.00,0.0050
3403.00,0.0050
3402.00,0.0050
3401.00,0.0050
3400.00,0.0050
3399.00,0.0050
3398.00,0.0051
3397.00,0.0051
3396.00,0.0051
3395.00,0.0051
3394.00,0.0051
3393.00,0.0051
3392.00,0.0051
3391.00,0.0051
3390.00,0.0051
3389.00,0.0051
3388.00,0.0051
3387.00,0.0051
3386.00,0.0051
3385.00,0.0051
3384.00,0.0051
3383.00,0.0052
3382.00,0.0052
3381.00,0.0052
3380.00,0.0053
3379.00,0.0053
3378.00,0.0052
3377.00,0.0052
3376.00,0.0052
3375.00,0.0051
3374.00,0.0052
3373.00,0.0052
3372.00,0.0053
3371.00,0.0053
3370.00,0.0054
3369.00,0.0053
3368.00,0.0053
3367.00,0.0053
3366.00,0.0053
3365.00,0.0053
3364.00,0.0053
3363.00,0.0054
3362.00,0.0054
3361.00,0.0055
3360.00,0.0055
3359.00,0.0055
3358.00,0.0055
3357.00,0.0055
3356.00,0.0055
3355.00,0.0056
3354.00,0.0056
3353.00,0.0056
3352.00,0.0055
3351.00,0.0055
3350.00,0.0055
3349.00,0.0056
3348.00,0.0056
3347.00,0.0056
3346.00,0.0056
3345.00,0.0056
3344.00,0.0056
3343.00,0.0056
3342.00,0.0056
3341.00,0.0056
3340.00,0.0056
3339.00,0.0056
3338.00,0.0055
3337.00,0.0056
3336.00,0.0056
3335.00,0.0056
3334.00,0.0056
3333.00,0.0056
3332.00,0.0056
3331.00,0.0056
3330.00,0.0056
3329.00,0.0056
3328.00,0.0056
3327.00,0.0056
3326.00,0.0056
3325.00,0.0056
3324.00,0.0056
3323.00,0.0056
3322.00,0.0056
3321.00,0.0056
3320.00,0.0056
3319.00,0.0056
3318.00,0.0056
3317.00,0.0056
3316.00,0.0056
3315.00,0.0056
3314.00,0.0056
3313.00,0.0057
3312.00,0.0057
3311.00,0.0057
3310.00,0.0056
3309.00,0.0056
3308.00,0.0056
3307.00,0.0057
3306.00,0.0057
3305.00,0.0057
3304.00,0.0058
3303.00,0.0058
3302.00,0.0059
3301.00,0.0059
3300.00,0.0059
3299.00,0.0059
3298.00,0.0059
3297.00,0.0059
3296.00,0.0059
3295.00,0.0059
3294.00,0.0058
3293.00,0.0058
3292.00,0.0059
3291.00,0.0059
3290.00,0.0059
3289.00,0.0059
3288.00,0.0059
3287.00,0.0059
3286.00,0.0059
3285.00,0.0059
3284.00,0.0059
3283.00,0.0059
3282.00,0.0059
3281.00,0.0059
3280.00,0.0059
3279.00,0.0058
3278.00,0.0058
3277.00,0.0058
3276.00,0.0057
3275.00,0.0057
3274.00,0.0057
3273.00,0.0057
3272.00,0.0057
3271.00,0.0057
3270.00,0.0057
3269.00,0.0057
3268.00,0.0057
3267.00,0.0057
3266.00,0.0057
3265.00,0.0056
3264.00,0.0056
3263.00,0.0056
3262.00,0.0056
3261.00,0.0056
3260.00,0.0056
3259.00,0.0056
3258.00,0.0056
3257.00,0.0056
3256.00,0.0056
3255.00,0.0055
3254.00,0.0055
3253.00,0.0054
3252.00,0.0054
3251.00,0.0054
3250.00,0.0054
3249.00,0.0054
3248.00,0.0053
3247.00,0.0053
3246.00,0.0053
3245.00,0.0053
3244.00,0.0053
3243.00,0.0052
3242.00,0.0052
3241.00,0.0052
3240.00,0.0052
3239.00,0.0052
3238.00,0.0053
3237.00,0.0053
3236.00,0.0054
3235.00,0.0054
3234.00,0.0054
3233.00,0.0053
3232.00,0.0053
3231.00,0.0053
3230.00,0.0053
3229.00,0.0053
3228.00,0.0053
3227.00,0.0053
3226.00,0.0054
3225.00,0.0054
3224.00,0.0055
3223.00,0.0055
3222.00,0.0055
3221.00,0.0056
3220.00,0.0056
3219.00,0.0056
3218.00,0.0056
3217.00,0.0056
3216.00,0.0056
3215.00,0.0056
3214.00,0.0056
3213.00,0.0056
3212.00,0.0056
3211.00,0.0056
3210.00,0.0056
3209.00,0.0056
3208.00,0.0057
3207.00,0.0057
3206.00,0.0057
3205.00,0.0057
3204.00,0.0058
3203.00,0.0058
3202.00,0.0057
3201.00,0.0057
3200.00,0.0056
3199.00,0.0056
3198.00,0.0056
3197.00,0.0056
3196.00,0.0056
3195.00,0.0056
3194.00,0.0057
3193.00,0.0057
3192.00,0.0057
3191.00,0.0056
3190.00,0.0055
3189.00,0.0055
3188.00,0.0054
3187.00,0.0054
3186.00,0.0054
3185.00,0.0054
3184.00,0.0055
3183.00,0.0055
3182.00,0.0055
3181.00,0.0055
3180.00,0.0054
3179.00,0.0054
3178.00,0.0053
3177.00,0.0053
3176.00,0.0052
3175.00,0.0053
3174.00,0.0053
3173.00,0.0053
3172.00,0.0053
3171.00,0.0052
3170.00,0.0052
3169.00,0.0051
3168.00,0.0051
3167.00,0.0051
3166.00,0.0051
3165.00,0.0052
3164.00,0.0051
3163.00,0.0051
3162.00,0.0051
3161.00,0.0051
3160.00,0.0051
3159.00,0.0052
3158.00,0.0052
3157.00,0.0052
3156.00,0.0052
3155.00,0.0052
3154.00,0.0052
3153.00,0.0052
3152.00,0.0052
3151.00,0.0052
3150.00,0.0052
3149.00,0.0052
3148.00,0.0052
3147.00,0.0052
3146.00,0.0052
3145.00,0.0052
3144.00,0.0051
3143.00,0.0051
3142.00,0.0051
3141.00,0.0051
3140.00,0.0051
3139.00,0.0051
3138.00,0.0051
3137.00,0.0051
3136.00,0.0051
3135.00,0.0051
3134.00,0.0050
3133.00,0.0050
3132.00,0.0049
3131.00,0.0049
3130.00,0.0049
3129.00,0.0049
3128.00,0.0049
3127.00,0.0050
3126.00,0.0050
3125.00,0.0049
3124.00,0.0048
3123.00,0.0048
3122.00,0.0047
3121.00,0.0046
3120.00,0.0046
3119.00,0.0046
3118.00,0.0046
3117.00,0.0046
3116.00,0.0046
3115.00,0.0046
3114.00,0.0047
3113.00,0.0047
3112.00,0.0047
3111.00,0.0047
3110.00,0.0047
3109.00,0.0047
3108.00,0.0047
3107.00,0.0047
3106.00,0.0047
3105.00,0.0047
3104.00,0.0047
3103.00,0.0047
3102.00,0.0047
3101.00,0.0047
3100.00,0.0047
3099.00,0.0047
3098.00,0.0047
3097.00,0.0047
3096.00,0.0047
3095.00,0.0047
3094.00,0.0047
3093.00,0.0047
3092.00,0.0047
3091.00,0.0047
3090.00,0.0047
3089.00,0.0047
3088.00,0.0047
3087.00,0.0047
3086.00,0.0047
3085.00,0.0047
3084.00,0.0048
3083.00,0.0048
3082.00,0.0047
3081.00,0.0047
3080.00,0.0047
3079.00,0.0047
3078.00,0.0047
3077.00,0.0047
3076.00,0.0047
3075.00,0.0048
3074.00,0.0048
3073.00,0.0048
3072.00,0.0048
3071.00,0.0048
3070.00,0.0048
3069.00,0.0048
3068.00,0.0048
3067.00,0.0048
3066.00,0.0048
3065.00,0.0048
3064.00,0.0048
3063.00,0.0048
3062.00,0.0049
3061.00,0.0049
3060.00,0.0050
3059.00,0.0050
3058.00,0.0050
3057.00,0.0050
3056.00,0.0050
3055.00,0.0050
3054.00,0.0050
3053.00,0.0050
3052.00,0.0050
3051.00,0.0050
3050.00,0.0050
3049.00,0.0050
3048.00,0.0050
3047.00,0.0050
3046.00,0.0050
3045.00,0.0050
3044.00,0.0050
3043.00,0.0050
3042.00,0.0050
3041.00,0.0050
3040.00,0.0051
3039.00,0.0051
3038.00,0.0052
3037.00,0.0052
3036.00,0.0052
3035.00,0.0052
3034.00,0.0053
3033.00,0.0053
3032.00,0.0054
3031.00,0.0054
3030.00,0.0055
3029.00,0.0055
3028.00,0.0056
3027.00,0.0056
3026.00,0.0057
3025.00,0.0057
3024.00,0.0058
3023.00,0.0058
3022.00,0.0059
3021.00,0.0059
3020.00,0.0060
3019.00,0.0061
3018.00,0.0062
3017.00,0.0063
3016.00,0.0064
3015.00,0.0064
3014.00,0.0065
3013.00,0.0066
3012.00,0.0067
3011.00,0.0069
3010.00,0.0070
3009.00,0.0072
3008.00,0.0074
3007.00,0.0076
3006.00,0.0077
3005.00,0.0079
3004.00,0.0082
3003.00,0.0084
3002.00,0.0086
3001.00,0.0088
3000.00,0.0091
2999.00,0.0094
2998.00,0.0096
2997.00,0.0099
2996.00,0.0103
2995.00,0.0106
2994.00,0.0110
2993.00,0.0114
2992.00,0.0119
2991.00,0.0124
2990.00,0.0131
2989.00,0.0137
2988.00,0.0145
2987.00,0.0153
2986.00,0.0163
2985.00,0.0173
2984.00,0.0185
2983.00,0.0198
2982.00,0.0212
2981.00,0.0228
2980.00,0.0245
2979.00,0.0265
2978.00,0.0287
2977.00,0.0313
2976.00,0.0341
2975.00,0.0375
2974.00,0.0412
2973.00,0.0455
2972.00,0.0503
2971.00,0.0556
2970.00,0.0615
2969.00,0.0679
2968.00,0.0747
2967.00,0.0819
2966.00,0.0892
2965.00,0.0966
2964.00,0.1036
2963.00,0.1101
2962.00,0.1158
2961.00,0.1207
2960.00,0.1251
2959.00,0.1293
2958.00,0.1338
2957.00,0.1391
2956.00,0.1456
2955.00,0.1532
2954.00,0.1618
2953.00,0.1707
2952.00,0.1789
2951.00,0.1851
2950.00,0.1882
2949.00,0.1873
2948.00,0.1819
2947.00,0.1728
2946.00,0.1610
2945.00,0.1481
2944.00,0.1357
2943.00,0.1250
2942.00,0.1166
2941.00,0.1107
2940.00,0.1074
2939.00,0.1065
2938.00,0.1076
2937.00,0.1105
2936.00,0.1152
2935.00,0.1214
2934.00,0.1290
2933.00,0.1379
2932.00,0.1480
2931.00,0.1590
2930.00,0.1708
2929.00,0.1829
2928.00,0.1952
2927.00,0.2073
2926.00,0.2191
2925.00,0.2307
2924.00,0.2421
2923.00,0.2535
2922.00,0.2650
2921.00,0.2763
2920.00,0.2866
2919.00,0.2948
2918.00,0.2997
2917.00,0.3000
2916.00,0.2956
2915.00,0.2870
2914.00,0.2754
2913.00,0.2624
2912.00,0.2492
2911.00,0.2368
2910.00,0.2256
2909.00,0.2156
2908.00,0.2064
2907.00,0.1978
2906.00,0.1896
2905.00,0.1817
2904.00,0.1740
2903.00,0.1666
2902.00,0.1595
2901.00,0.1527
2900.00,0.1463
2899.00,0.1403
2898.00,0.1346
2897.00,0.1295
2896.00,0.1250
2895.00,0.1210
2894.00,0.1176
2893.00,0.1148
2892.00,0.1127
2891.00,0.1111
2890.00,0.1101
2889.00,0.1095
2888.00,0.1093
2887.00,0.1094
2886.00,0.1100
2885.00,0.1109
2884.00,0.1122
2883.00,0.1141
2882.00,0.1165
2881.00,0.1193
2880.00,0.1222
2879.00,0.1247
2878.00,0.1265
2877.00,0.1272
2876.00,0.1270
2875.00,0.1261
2874.00,0.1253
2873.00,0.1251
2872.00,0.1256
2871.00,0.1269
2870.00,0.1288
2869.00,0.1308
2868.00,0.1320
2867.00,0.1318
2866.00,0.1292
2865.00,0.1242
2864.00,0.1172
2863.00,0.1090
2862.00,0.1007
2861.00,0.0933
2860.00,0.0875
2859.00,0.0834
2858.00,0.0810
2857.00,0.0800
2856.00,0.0801
2855.00,0.0812
2854.00,0.0830
2853.00,0.0851
2852.00,0.0873
2851.00,0.0891
2850.00,0.0904
2849.00,0.0912
2848.00,0.0918
2847.00,0.0927
2846.00,0.0943
2845.00,0.0971
2844.00,0.1010
2843.00,0.1058
2842.00,0.1110
2841.00,0.1160
2840.00,0.1200
2839.00,0.1223
2838.00,0.1221
2837.00,0.1189
2836.00,0.1128
2835.00,0.1042
2834.00,0.0940
2833.00,0.0833
2832.00,0.0731
2831.00,0.0640
2830.00,0.0562
2829.00,0.0498
2828.00,0.0447
2827.00,0.0406
2826.00,0.0372
2825.00,0.0345
2824.00,0.0321
2823.00,0.0302
2822.00,0.0285
2821.00,0.0271
2820.00,0.0258
2819.00,0.0247
2818.00,0.0238
2817.00,0.0230
2816.00,0.0223
2815.00,0.0217
2814.00,0.0211
2813.00,0.0205
2812.00,0.0199
2811.00,0.0193
2810.00,0.0187
2809.00,0.0181
2808.00,0.0175
2807.00,0.0168
2806.00,0.0162
2805.00,0.0155
2804.00,0.0149
2803.00,0.0143
2802.00,0.0137
2801.00,0.0132
2800.00,0.0128
2799.00,0.0125
2798.00,0.0122
2797.00,0.0119
2796.00,0.0117
2795.00,0.0114
2794.00,0.0112
2793.00,0.0109
2792.00,0.0106
2791.00,0.0103
2790.00,0.0101
2789.00,0.0098
2788.00,0.0095
2787.00,0.0093
2786.00,0.0090
2785.00,0.0088
2784.00,0.0086
2783.00,0.0084
2782.00,0.0082
2781.00,0.0080
2780.00,0.0078
2779.00,0.0076
2778.00,0.0075
2777.00,0.0073
2776.00,0.0072
2775.00,0.0071
2774.00,0.0070
2773.00,0.0070
2772.00,0.0069
2771.00,0.0069
2770.00,0.0069
2769.00,0.0068
2768.00,0.0068
2767.00,0.0067
2766.00,0.0067
2765.00,0.0067
2764.00,0.0066
2763.00,0.0066
2762.00,0.0066
2761.00,0.0065
2760.00,0.0065
2759.00,0.0065
2758.00,0.0064
2757.00,0.0064
2756.00,0.0064
2755.00,0.0063
2754.00,0.0063
2753.00,0.0063
2752.00,0.0063
2751.00,0.0063
2750.00,0.0063
2749.00,0.0063
2748.00,0.0063
2747.00,0.0064
2746.00,0.0064
2745.00,0.0065
2744.00,0.0065
2743.00,0.0066
2742.00,0.0067
2741.00,0.0068
2740.00,0.0069
2739.00,0.0070
2738.00,0.0071
2737.00,0.0072
2736.00,0.0074
2735.00,0.0075
2734.00,0.0077
2733.00,0.0079
2732.00,0.0080
2731.00,0.0083
2730.00,0.0085
2729.00,0.0087
2728.00,0.0090
2727.00,0.0093
2726.00,0.0096
2725.00,0.0098
2724.00,0.0100
2723.00,0.0100
2722.00,0.0100
2721.00,0.0098
2720.00,0.0095
2719.00,0.0092
2718.00,0.0089
2717.00,0.0085
2716.00,0.0082
2715.00,0.0079
2714.00,0.0077
2713.00,0.0074
2712.00,0.0072
2711.00,0.0069
2710.00,0.0067
2709.00,0.0066
2708.00,0.0064
2707.00,0.0063
2706.00,0.0062
2705.00,0.0060
2704.00,0.0059
2703.00,0.0058
2702.00,0.0058
2701.00,0.0057
2700.00,0.0056
2699.00,0.0055
2698.00,0.0055
2697.00,0.0055
2696.00,0.0055
2695.00,0.0055
2694.00,0.0055
2693.00,0.0054
2692.00,0.0054
2691.00,0.0054
2690.00,0.0054
2689.00,0.0054
2688.00,0.0055
2687.00,0.0055
2686.00,0.0055
2685.00,0.0055
2684.00,0.0055
2683.00,0.0055
2682.00,0.0055
2681.00,0.0055
2680.00,0.0056
2679.00,0.0056
2678.00,0.0056
2677.00,0.0056
2676.00,0.0056
2675.00,0.0055
2674.00,0.0055
2673.00,0.0055
2672.00,0.0055
2671.00,0.0055
2670.00,0.0055
2669.00,0.0056
2668.00,0.0056
2667.00,0.0056
2666.00,0.0056
2665.00,0.0056
2664.00,0.0057
2663.00,0.0057
2662.00,0.0058
2661.00,0.0059
2660.00,0.0059
2659.00,0.0060
2658.00,0.0060
2657.00,0.0059
2656.00,0.0059
2655.00,0.0058
2654.00,0.0057
2653.00,0.0057
2652.00,0.0056
2651.00,0.0055
2650.00,0.0055
2649.00,0.0054
2648.00,0.0053
2647.00,0.0053
2646.00,0.0053
2645.00,0.0053
2644.00,0.0053
2643.00,0.0053
2642.00,0.0052
2641.00,0.0051
2640.00,0.0050
2639.00,0.0049
2638.00,0.0049
2637.00,0.0049
2636.00,0.0049
2635.00,0.0050
2634.00,0.0050
2633.00,0.0050
2632.00,0.0049
2631.00,0.0049
2630.00,0.0050
2629.00,0.0050
2628.00,0.0050
2627.00,0.0050
2626.00,0.0050
2625.00,0.0051
2624.00,0.0051
2623.00,0.0051
2622.00,0.0051
2621.00,0.0051
2620.00,0.0050
2619.00,0.0050
2618.00,0.0050
2617.00,0.0050
2616.00,0.0050
2615.00,0.0050
2614.00,0.0050
2613.00,0.0050
2612.00,0.0050
2611.00,0.0049
2610.00,0.0048
2609.00,0.0047
2608.00,0.0046
2607.00,0.0045
2606.00,0.0045
2605.00,0.0044
2604.00,0.0044
2603.00,0.0043
2602.00,0.0042
2601.00,0.0042
2600.00,0.0042
2599.00,0.0042
2598.00,0.0041
2597.00,0.0041
2596.00,0.0041
2595.00,0.0042
2594.00,0.0042
2593.00,0.0043
2592.00,0.0043
2591.00,0.0044
2590.00,0.0044
2589.00,0.0045
2588.00,0.0046
2587.00,0.0047
2586.00,0.0048
2585.00,0.0050
2584.00,0.0050
2583.00,0.0051
2582.00,0.0050
2581.00,0.0050
2580.00,0.0049
2579.00,0.0048
2578.00,0.0047
2577.00,0.0045
2576.00,0.0044
2575.00,0.0043
2574.00,0.0042
2573.00,0.0040
2572.00,0.0039
2571.00,0.0038
2570.00,0.0038
2569.00,0.0037
2568.00,0.0037
2567.00,0.0036
2566.00,0.0036
2565.00,0.0035
2564.00,0.0035
2563.00,0.0034
2562.00,0.0033
2561.00,0.0032
2560.00,0.0032
2559.00,0.0031
2558.00,0.0031
2557.00,0.0032
2556.00,0.0031
2555.00,0.0031
2554.00,0.0030
2553.00,0.0029
2552.00,0.0028
2551.00,0.0028
2550.00,0.0028
2549.00,0.0028
2548.00,0.0028
2547.00,0.0028
2546.00,0.0028
2545.00,0.0028
2544.00,0.0028
2543.00,0.0027
2542.00,0.0027
2541.00,0.0027
2540.00,0.0027
2539.00,0.0026
2538.00,0.0026
2537.00,0.0025
2536.00,0.0025
2535.00,0.0025
2534.00,0.0025
2533.00,0.0025
2532.00,0.0025
2531.00,0.0025
2530.00,0.0024
2529.00,0.0024
2528.00,0.0024
2527.00,0.0023
2526.00,0.0024
2525.00,0.0024
2524.00,0.0024
2523.00,0.0024
2522.00,0.0024
2521.00,0.0024
2520.00,0.0024
2519.00,0.0023
2518.00,0.0023
2517.00,0.0023
2516.00,0.0023
2515.00,0.0022
2514.00,0.0022
2513.00,0.0022
2512.00,0.0021
2511.00,0.0020
2510.00,0.0019
2509.00,0.0020
2508.00,0.0020
2507.00,0.0021
2506.00,0.0021
2505.00,0.0021
2504.00,0.0021
2503.00,0.0021
2502.00,0.0020
2501.00,0.0020
2500.00,0.0020
2499.00,0.0020
2498.00,0.0020
2497.00,0.0019
2496.00,0.0020
2495.00,0.0020
2494.00,0.0020
2493.00,0.0020
2492.00,0.0020
2491.00,0.0019
2490.00,0.0019
2489.00,0.0018
2488.00,0.0018
2487.00,0.0017
2486.00,0.0017
2485.00,0.0017
2484.00,0.0018
2483.00,0.0018
2482.00,0.0018
2481.00,0.0018
2480.00,0.0018
2479.00,0.0018
2478.00,0.0018
2477.00,0.0018
2476.00,0.0018
2475.00,0.0017
2474.00,0.0017
2473.00,0.0017
2472.00,0.0016
2471.00,0.0016
2470.00,0.0017
2469.00,0.0018
2468.00,0.0018
2467.00,0.0018
2466.00,0.0018
2465.00,0.0018
2464.00,0.0018
2463.00,0.0018
2462.00,0.0019
2461.00,0.0020
2460.00,0.0020
2459.00,0.0020
2458.00,0.0020
2457.00,0.0020
2456.00,0.0021
2455.00,0.0020
2454.00,0.0020
2453.00,0.0019
2452.00,0.0019
2451.00,0.0019
2450.00,0.0020
2449.00,0.0020
2448.00,0.0019
2447.00,0.0019
2446.00,0.0019
2445.00,0.0019
2444.00,0.0019
2443.00,0.0019
2442.00,0.0019
2441.00,0.0019
2440.00,0.0019
2439.00,0.0019
2438.00,0.0020
2437.00,0.0019
2436.00,0.0019
2435.00,0.0018
2434.00,0.0018
2433.00,0.0019
2432.00,0.0019
2431.00,0.0019
2430.00,0.0019
2429.00,0.0019
2428.00,0.0020
2427.00,0.0020
2426.00,0.0020
2425.00,0.0020
2424.00,0.0020
2423.00,0.0020
2422.00,0.0019
2421.00,0.0019
2420.00,0.0018
2419.00,0.0018
2418.00,0.0018
2417.00,0.0018
2416.00,0.0018
2415.00,0.0018
2414.00,0.0018
2413.00,0.0018
2412.00,0.0018
2411.00,0.0018
2410.00,0.0018
2409.00,0.0017
2408.00,0.0017
2407.00,0.0016
2406.00,0.0015
2405.00,0.0015
2404.00,0.0015
2403.00,0.0016
2402.00,0.0016
2401.00,0.0016
2400.00,0.0016
2399.00,0.0017
2398.00,0.0017
2397.00,0.0017
2396.00,0.0017
2395.00,0.0016
2394.00,0.0016
2393.00,0.0015
2392.00,0.0015
2391.00,0.0014
2390.00,0.0014
2389.00,0.0014
2388.00,0.0014
2387.00,0.0014
2386.00,0.0013
2385.00,0.0013
2384.00,0.0012
2383.00,0.0012
2382.00,0.0011
2381.00,0.0010
2380.00,0.0010
2379.00,0.0009
2378.00,0.0008
2377.00,0.0008
2376.00,0.0008
2375.00,0.0008
2374.00,0.0008
2373.00,0.0009
2372.00,0.0009
2371.00,0.0009
2370.00,0.0008
2369.00,0.0007
2368.00,0.0006
2367.00,0.0006
2366.00,0.0007
2365.00,0.0008
2364.00,0.0009
2363.00,0.0009
2362.00,0.0009
2361.00,0.0008
2360.00,0.0008
2359.00,0.0007
2358.00,0.0007
2357.00,0.0007
2356.00,0.0008
2355.00,0.0009
2354.00,0.0010
2353.00,0.0010
2352.00,0.0009
2351.00,0.0009
2350.00,0.0008
2349.00,0.0009
2348.00,0.0009
2347.00,0.0010
2346.00,0.0010
2345.00,0.0009
2344.00,0.0009
2343.00,0.0009
2342.00,0.0009
2341.00,0.0010
2340.00,0.0011
2339.00,0.0011
2338.00,0.0012
2337.00,0.0012
2336.00,0.0013
2335.00,0.0013
2334.00,0.0013
2333.00,0.0012
2332.00,0.0012
2331.00,0.0011
2330.00,0.0010
2329.00,0.0011
2328.00,0.0013
2327.00,0.0016
2326.00,0.0021
2325.00,0.0025
2324.00,0.0027
2323.00,0.0027
2322.00,0.0024
2321.00,0.0021
2320.00,0.0019
2319.00,0.0017
2318.00,0.0016
2317.00,0.0016
2316.00,0.0016
2315.00,0.0015
2314.00,0.0014
2313.00,0.0013
2312.00,0.0012
2311.00,0.0011
2310.00,0.0012
2309.00,0.0012
2308.00,0.0013
2307.00,0.0013
2306.00,0.0013
2305.00,0.0013
2304.00,0.0014
2303.00,0.0015
2302.00,0.0016
2301.00,0.0016
2300.00,0.0017
2299.00,0.0017
2298.00,0.0017
2297.00,0.0017
2296.00,0.0017
2295.00,0.0018
2294.00,0.0019
2293.00,0.0020
2292.00,0.0021
2291.00,0.0023
2290.00,0.0024
2289.00,0.0025
2288.00,0.0026
2287.00,0.0027
2286.00,0.0027
2285.00,0.0026
2284.00,0.0025
2283.00,0.0024
2282.00,0.0023
2281.00,0.0023
2280.00,0.0022
2279.00,0.0021
2278.00,0.0021
2277.00,0.0020
2276.00,0.0020
2275.00,0.0019
2274.00,0.0018
2273.00,0.0017
2272.00,0.0017
2271.00,0.0018
2270.00,0.0019
2269.00,0.0021
2268.00,0.0022
2267.00,0.0022
2266.00,0.0021
2265.00,0.0020
2264.00,0.0018
2263.00,0.0018
2262.00,0.0017
2261.00,0.0018
2260.00,0.0020
2259.00,0.0021
2258.00,0.0021
2257.00,0.0020
2256.00,0.0019
2255.00,0.0017
2254.00,0.0015
2253.00,0.0014
2252.00,0.0014
2251.00,0.0014
2250.00,0.0014
2249.00,0.0015
2248.00,0.0015
2247.00,0.0015
2246.00,0.0015
2245.00,0.0014
2244.00,0.0013
2243.00,0.0012
2242.00,0.0012
2241.00,0.0012
2240.00,0.0013
2239.00,0.0015
2238.00,0.0017
2237.00,0.0018
2236.00,0.0019
2235.00,0.0018
2234.00,0.0018
2233.00,0.0017
2232.00,0.0016
2231.00,0.0016
2230.00,0.0016
2229.00,0.0017
2228.00,0.0017
2227.00,0.0016
2226.00,0.0016
2225.00,0.0016
2224.00,0.0016
2223.00,0.0015
2222.00,0.0014
2221.00,0.0013
2220.00,0.0012
2219.00,0.0012
2218.00,0.0014
2217.00,0.0015
2216.00,0.0015
2215.00,0.0014
2214.00,0.0013
2213.00,0.0012
2212.00,0.0012
2211.00,0.0011
2210.00,0.0011
2209.00,0.0011
2208.00,0.0011
2207.00,0.0012
2206.00,0.0013
2205.00,0.0015
2204.00,0.0016
2203.00,0.0018
2202.00,0.0018
2201.00,0.0018
2200.00,0.0016
2199.00,0.0014
2198.00,0.0014
2197.00,0.0014
2196.00,0.0016
2195.00,0.0018
2194.00,0.0018
2193.00,0.0016
2192.00,0.0015
2191.00,0.0014
2190.00,0.0016
2189.00,0.0018
2188.00,0.0021
2187.00,0.0023
2186.00,0.0024
2185.00,0.0024
2184.00,0.0023
2183.00,0.0020
2182.00,0.0017
2181.00,0.0015
2180.00,0.0014
2179.00,0.0012
2178.00,0.0010
2177.00,0.0006
2176.00,0.0003
2175.00,0.0002
2174.00,0.0003
2173.00,0.0006
2172.00,0.0009
2171.00,0.0010
2170.00,0.0011
2169.00,0.0013
2168.00,0.0016
2167.00,0.0020
2166.00,0.0022
2165.00,0.0025
2164.00,0.0026
2163.00,0.0026
2162.00,0.0024
2161.00,0.0018
2160.00,0.0006
2159.00,-0.0008
2158.00,-0.0020
2157.00,-0.0025
2156.00,-0.0024
2155.00,-0.0022
2154.00,-0.0019
2153.00,-0.0017
2152.00,-0.0013
2151.00,-0.0011
2150.00,-0.0008
2149.00,-0.0006
2148.00,-0.0004
2147.00,-0.0004
2146.00,-0.0004
2145.00,-0.0006
2144.00,-0.0007
2143.00,-0.0009
2142.00,-0.0009
2141.00,-0.0009
2140.00,-0.0006
2139.00,-0.0004
2138.00,-0.0003
2137.00,-0.0003
2136.00,-0.0005
2135.00,-0.0009
2134.00,-0.0011
2133.00,-0.0012
2132.00,-0.0010
2131.00,-0.0008
2130.00,-0.0006
2129.00,-0.0004
2128.00,-0.0003
2127.00,-0.0002
2126.00,-0.0001
2125.00,0.0000
2124.00,0.0002
2123.00,0.0003
2122.00,0.0005
2121.00,0.0006
2120.00,0.0006
2119.00,0.0006
2118.00,0.0005
2117.00,0.0006
2116.00,0.0007
2115.00,0.0008
2114.00,0.0009
2113.00,0.0009
2112.00,0.0009
2111.00,0.0008
2110.00,0.0008
2109.00,0.0007
2108.00,0.0008
2107.00,0.0008
2106.00,0.0008
2105.00,0.0008
2104.00,0.0008
2103.00,0.0008
2102.00,0.0008
2101.00,0.0009
2100.00,0.0010
2099.00,0.0010
2098.00,0.0009
2097.00,0.0006
2096.00,0.0004
2095.00,0.0002
2094.00,0.0001
2093.00,0.0001
2092.00,0.0003
2091.00,0.0004
2090.00,0.0005
2089.00,0.0007
2088.00,0.0009
2087.00,0.0009
2086.00,0.0009
2085.00,0.0009
2084.00,0.0008
2083.00,0.0008
2082.00,0.0008
2081.00,0.0008
2080.00,0.0008
2079.00,0.0008
2078.00,0.0008
2077.00,0.0009
2076.00,0.0009
2075.00,0.0009
2074.00,0.0011
2073.00,0.0012
2072.00,0.0013
2071.00,0.0012
2070.00,0.0010
2069.00,0.0008
2068.00,0.0008
2067.00,0.0008
2066.00,0.0007
2065.00,0.0006
2064.00,0.0003
2063.00,0.0002
2062.00,0.0002
2061.00,0.0004
2060.00,0.0006
2059.00,0.0007
2058.00,0.0007
2057.00,0.0007
2056.00,0.0007
2055.00,0.0007
2054.00,0.0009
2053.00,0.0013
2052.00,0.0018
2051.00,0.0020
2050.00,0.0018
2049.00,0.0013
2048.00,0.0009
2047.00,0.0007
2046.00,0.0008
2045.00,0.0011
2044.00,0.0012
2043.00,0.0012
2042.00,0.0010
2041.00,0.0008
2040.00,0.0007
2039.00,0.0007
2038.00,0.0007
2037.00,0.0007
2036.00,0.0005
2035.00,0.0004
2034.00,0.0002
2033.00,0.0001
2032.00,0.0001
2031.00,0.0002
2030.00,0.0004
2029.00,0.0007
2028.00,0.0009
2027.00,0.0010
2026.00,0.0008
2025.00,0.0005
2024.00,0.0001
2023.00,-0.0002
2022.00,-0.0002
2021.00,-0.0001
2020.00,-0.0001
2019.00,-0.0001
2018.00,-0.0002
2017.00,-0.0002
2016.00,-0.0003
2015.00,-0.0003
2014.00,-0.0004
2013.00,-0.0004
2012.00,-0.0002
2011.00,-0.0001
2010.00,-0.0000
2009.00,-0.0001
2008.00,-0.0005
2007.00,-0.0010
2006.00,-0.0014
2005.00,-0.0016
2004.00,-0.0015
2003.00,-0.0011
2002.00,-0.0008
2001.00,-0.0006
2000.00,-0.0006
1999.00,-0.0008
1998.00,-0.0009
1997.00,-0.0008
1996.00,-0.0005
1995.00,-0.0003
1994.00,-0.0003
1993.00,-0.0003
1992.00,-0.0003
1991.00,-0.0003
1990.00,-0.0003
1989.00,-0.0003
1988.00,-0.0003
1987.00,-0.0003
1986.00,-0.0003
1985.00,-0.0003
1984.00,-0.0002
1983.00,-0.0002
1982.00,-0.0000
1981.00,0.0004
1980.00,0.0009
1979.00,0.0011
1978.00,0.0009
1977.00,0.0004
1976.00,-0.0001
1975.00,-0.0005
1974.00,-0.0007
1973.00,-0.0009
1972.00,-0.0011
1971.00,-0.0014
1970.00,-0.0016
1969.00,-0.0018
1968.00,-0.0016
1967.00,-0.0014
1966.00,-0.0010
1965.00,-0.0008
1964.00,-0.0006
1963.00,-0.0006
1962.00,-0.0007
1961.00,-0.0008
1960.00,-0.0010
1959.00,-0.0013
1958.00,-0.0014
1957.00,-0.0014
1956.00,-0.0012
1955.00,-0.0010
1954.00,-0.0007
1953.00,-0.0005
1952.00,-0.0005
1951.00,-0.0005
1950.00,-0.0006
1949.00,-0.0007
1948.00,-0.0008
1947.00,-0.0009
1946.00,-0.0010
1945.00,-0.0010
1944.00,-0.0008
1943.00,-0.0006
1942.00,-0.0006
1941.00,-0.0007
1940.00,-0.0007
1939.00,-0.0008
1938.00,-0.0008
1937.00,-0.0008
1936.00,-0.0007
1935.00,-0.0007
1934.00,-0.0006
1933.00,-0.0004
1932.00,-0.0001
1931.00,0.0001
1930.00,0.0003
1929.00,0.0003
1928.00,0.0004
1927.00,0.0003
1926.00,0.0002
1925.00,0.0001
1924.00,0.0001
1923.00,0.0002
1922.00,0.0003
1921.00,0.0004
1920.00,0.0005
1919.00,0.0005
1918.00,0.0004
1917.00,0.0003
1916.00,0.0003
1915.00,0.0002
1914.00,0.0002
1913.00,0.0002
1912.00,0.0002
1911.00,0.0002
1910.00,0.0003
1909.00,0.0004
1908.00,0.0004
1907.00,0.0003
1906.00,0.0002
1905.00,0.0001
1904.00,0.0001
1903.00,0.0002
1902.00,0.0003
1901.00,0.0005
1900.00,0.0006
1899.00,0.0006
1898.00,0.0007
1897.00,0.0007
1896.00,0.0007
1895.00,0.0006
1894.00,0.0005
1893.00,0.0005
1892.00,0.0006
1891.00,0.0006
1890.00,0.0007
1889.00,0.0007
1888.00,0.0006
1887.00,0.0005
1886.00,0.0005
1885.00,0.0005
1884.00,0.0005
1883.00,0.0005
1882.00,0.0006
1881.00,0.0006
1880.00,0.0006
1879.00,0.0005
1878.00,0.0004
1877.00,0.0004
1876.00,0.0003
1875.00,0.0004
1874.00,0.0004
1873.00,0.0004
1872.00,0.0005
1871.00,0.0006
1870.00,0.0006
1869.00,0.0007
1868.00,0.0008
1867.00,0.0008
1866.00,0.0008
1865.00,0.0008
1864.00,0.0007
1863.00,0.0006
1862.00,0.0005
1861.00,0.0005
1860.00,0.0006
1859.00,0.0006
1858.00,0.0007
1857.00,0.0007
1856.00,0.0007
1855.00,0.0007
1854.00,0.0007
1853.00,0.0007
1852.00,0.0006
1851.00,0.0006
1850.00,0.0006
1849.00,0.0006
1848.00,0.0006
1847.00,0.0007
1846.00,0.0007
1845.00,0.0008
1844.00,0.0008
1843.00,0.0008
1842.00,0.0008
1841.00,0.0008
1840.00,0.0008
1839.00,0.0009
1838.00,0.0009
1837.00,0.0009
1836.00,0.0010
1835.00,0.0009
1834.00,0.0009
1833.00,0.0009
1832.00,0.0009
1831.00,0.0010
1830.00,0.0010
1829.00,0.0011
1828.00,0.0011
1827.00,0.0011
1826.00,0.0010
1825.00,0.0010
1824.00,0.0010
1823.00,0.0010
1822.00,0.0010
1821.00,0.0010
1820.00,0.0009
1819.00,0.0009
1818.00,0.0008
1817.00,0.0008
1816.00,0.0008
1815.00,0.0009
1814.00,0.0009
1813.00,0.0010
1812.00,0.0010
1811.00,0.0010
1810.00,0.0010
1809.00,0.0010
1808.00,0.0010
1807.00,0.0010
1806.00,0.0010
1805.00,0.0010
1804.00,0.0010
1803.00,0.0011
1802.00,0.0011
1801.00,0.0012
1800.00,0.0012
1799.00,0.0012
1798.00,0.0013
1797.00,0.0013
1796.00,0.0013
1795.00,0.0013
1794.00,0.0013
1793.00,0.0013
1792.00,0.0014
1791.00,0.0015
1790.00,0.0015
1789.00,0.0015
1788.00,0.0015
1787.00,0.0015
1786.00,0.0015
1785.00,0.0014
1784.00,0.0014
1783.00,0.0014
1782.00,0.0014
1781.00,0.0015
1780.00,0.0015
1779.00,0.0015
1778.00,0.0015
1777.00,0.0015
1776.00,0.0015
1775.00,0.0016
1774.00,0.0016
1773.00,0.0016
1772.00,0.0016
1771.00,0.0016
1770.00,0.0016
1769.00,0.0016
1768.00,0.0017
1767.00,0.0017
1766.00,0.0018
1765.00,0.0018
1764.00,0.0018
1763.00,0.0018
1762.00,0.0019
1761.00,0.0019
1760.00,0.0020
1759.00,0.0021
1758.00,0.0022
1757.00,0.0023
1756.00,0.0024
1755.00,0.0025
1754.00,0.0025
1753.00,0.0027
1752.00,0.0028
1751.00,0.0029
1750.00,0.0029
1749.00,0.0029
1748.00,0.0029
1747.00,0.0030
1746.00,0.0030
1745.00,0.0030
1744.00,0.0031
1743.00,0.0031
1742.00,0.0031
1741.00,0.0031
1740.00,0.0030
1739.00,0.0030
1738.00,0.0030
1737.00,0.0030
1736.00,0.0030
1735.00,0.0030
1734.00,0.0029
1733.00,0.0029
1732.00,0.0029
1731.00,0.0030
1730.00,0.0030
1729.00,0.0031
1728.00,0.0031
1727.00,0.0032
1726.00,0.0032
1725.00,0.0033
1724.00,0.0033
1723.00,0.0033
1722.00,0.0033
1721.00,0.0033
1720.00,0.0033
1719.00,0.0033
1718.00,0.0033
1717.00,0.0033
1716.00,0.0032
1715.00,0.0032
1714.00,0.0032
1713.00,0.0032
1712.00,0.0033
1711.00,0.0033
1710.00,0.0033
1709.00,0.0034
1708.00,0.0035
1707.00,0.0036
1706.00,0.0037
1705.00,0.0037
1704.00,0.0038
1703.00,0.0038
1702.00,0.0038
1701.00,0.0039
1700.00,0.0041
1699.00,0.0041
1698.00,0.0042
1697.00,0.0043
1696.00,0.0045
1695.00,0.0047
1694.00,0.0048
1693.00,0.0048
1692.00,0.0049
1691.00,0.0050
1690.00,0.0051
1689.00,0.0052
1688.00,0.0052
1687.00,0.0053
1686.00,0.0054
1685.00,0.0054
1684.00,0.0055
1683.00,0.0057
1682.00,0.0058
1681.00,0.0059
1680.00,0.0060
1679.00,0.0062
1678.00,0.0062
1677.00,0.0063
1676.00,0.0065
1675.00,0.0066
1674.00,0.0068
1673.00,0.0069
1672.00,0.0069
1671.00,0.0070
1670.00,0.0071
1669.00,0.0072
1668.00,0.0073
1667.00,0.0074
1666.00,0.0075
1665.00,0.0076
1664.00,0.0078
1663.00,0.0080
1662.00,0.0081
1661.00,0.0083
1660.00,0.0084
1659.00,0.0085
1658.00,0.0086
1657.00,0.0088
1656.00,0.0089
1655.00,0.0090
1654.00,0.0091
1653.00,0.0093
1652.00,0.0095
1651.00,0.0096
1650.00,0.0097
1649.00,0.0097
1648.00,0.0097
1647.00,0.0097
1646.00,0.0097
1645.00,0.0098
1644.00,0.0098
1643.00,0.0098
1642.00,0.0098
1641.00,0.0098
1640.00,0.0099
1639.00,0.0099
1638.00,0.0099
1637.00,0.0099
1636.00,0.0098
1635.00,0.0097
1634.00,0.0096
1633.00,0.0096
1632.00,0.0095
1631.00,0.0094
1630.00,0.0094
1629.00,0.0094
1628.00,0.0093
1627.00,0.0093
1626.00,0.0092
1625.00,0.0092
1624.00,0.0090
1623.00,0.0089
1622.00,0.0087
1621.00,0.0086
1620.00,0.0086
1619.00,0.0085
1618.00,0.0084
1617.00,0.0083
1616.00,0.0082
1615.00,0.0081
1614.00,0.0080
1613.00,0.0080
1612.00,0.0079
1611.00,0.0078
1610.00,0.0077
1609.00,0.0076
1608.00,0.0076
1607.00,0.0075
1606.00,0.0075
1605.00,0.0075
1604.00,0.0074
1603.00,0.0074
1602.00,0.0073
1601.00,0.0073
1600.00,0.0073
1599.00,0.0073
1598.00,0.0072
1597.00,0.0073
1596.00,0.0073
1595.00,0.0073
1594.00,0.0072
1593.00,0.0072
1592.00,0.0072
1591.00,0.0072
1590.00,0.0073
1589.00,0.0073
1588.00,0.0074
1587.00,0.0075
1586.00,0.0075
1585.00,0.0077
1584.00,0.0078
1583.00,0.0079
1582.00,0.0081
1581.00,0.0083
1580.00,0.0085
1579.00,0.0087
1578.00,0.0088
1577.00,0.0088
1576.00,0.0088
1575.00,0.0086
1574.00,0.0085
1573.00,0.0084
1572.00,0.0084
1571.00,0.0083
1570.00,0.0082
1569.00,0.0082
1568.00,0.0082
1567.00,0.0082
1566.00,0.0081
1565.00,0.0081
1564.00,0.0081
1563.00,0.0080
1562.00,0.0080
1561.00,0.0081
1560.00,0.0083
1559.00,0.0084
1558.00,0.0084
1557.00,0.0085
1556.00,0.0085
1555.00,0.0086
1554.00,0.0088
1553.00,0.0089
1552.00,0.0091
1551.00,0.0093
1550.00,0.0094
1549.00,0.0096
1548.00,0.0098
1547.00,0.0100
1546.00,0.0102
1545.00,0.0105
1544.00,0.0107
1543.00,0.0109
1542.00,0.0110
1541.00,0.0110
1540.00,0.0110
1539.00,0.0109
1538.00,0.0107
1537.00,0.0107
1536.00,0.0106
1535.00,0.0105
1534.00,0.0103
1533.00,0.0102
1532.00,0.0100
1531.00,0.0099
1530.00,0.0098
1529.00,0.0098
1528.00,0.0098
1527.00,0.0099
1526.00,0.0099
1525.00,0.0099
1524.00,0.0099
1523.00,0.0098
1522.00,0.0098
1521.00,0.0099
1520.00,0.0100
1519.00,0.0101
1518.00,0.0102
1517.00,0.0103
1516.00,0.0104
1515.00,0.0104
1514.00,0.0104
1513.00,0.0104
1512.00,0.0105
1511.00,0.0105
1510.00,0.0105
1509.00,0.0105
1508.00,0.0107
1507.00,0.0107
1506.00,0.0107
1505.00,0.0108
1504.00,0.0109
1503.00,0.0110
1502.00,0.0111
1501.00,0.0112
1500.00,0.0114
1499.00,0.0114
1498.00,0.0115
1497.00,0.0117
1496.00,0.0119
1495.00,0.0121
1494.00,0.0123
1493.00,0.0125
1492.00,0.0128
1491.00,0.0131
1490.00,0.0133
1489.00,0.0137
1488.00,0.0142
1487.00,0.0147
1486.00,0.0152
1485.00,0.0158
1484.00,0.0166
1483.00,0.0173
1482.00,0.0183
1481.00,0.0194
1480.00,0.0207
1479.00,0.0220
1478.00,0.0235
1477.00,0.0257
1476.00,0.0283
1475.00,0.0314
1474.00,0.0355
1473.00,0.0413
1472.00,0.0482
1471.00,0.0548
1470.00,0.0612
1469.00,0.0679
1468.00,0.0752
1467.00,0.0833
1466.00,0.0926
1465.00,0.1027
1464.00,0.1114
1463.00,0.1172
1462.00,0.1208
1461.00,0.1229
1460.00,0.1242
1459.00,0.1248
1458.00,0.1249
1457.00,0.1247
1456.00,0.1239
1455.00,0.1226
1454.00,0.1210
1453.00,0.1188
1452.00,0.1156
1451.00,0.1114
1450.00,0.1059
1449.00,0.0986
1448.00,0.0895
1447.00,0.0801
1446.00,0.0719
1445.00,0.0650
1444.00,0.0593
1443.00,0.0546
1442.00,0.0512
1441.00,0.0488
1440.00,0.0475
1439.00,0.0472
1438.00,0.0477
1437.00,0.0484
1436.00,0.0479
1435.00,0.0457
1434.00,0.0422
1433.00,0.0378
1432.00,0.0333
1431.00,0.0292
1430.00,0.0261
1429.00,0.0238
1428.00,0.0222
1427.00,0.0212
1426.00,0.0206
1425.00,0.0200
1424.00,0.0194
1423.00,0.0191
1422.00,0.0188
1421.00,0.0186
1420.00,0.0184
1419.00,0.0182
1418.00,0.0179
1417.00,0.0176
1416.00,0.0174
1415.00,0.0172
1414.00,0.0171
1413.00,0.0169
1412.00,0.0167
1411.00,0.0165
1410.00,0.0165
1409.00,0.0163
1408.00,0.0162
1407.00,0.0161
1406.00,0.0161
1405.00,0.0160
1404.00,0.0158
1403.00,0.0158
1402.00,0.0159
1401.00,0.0159
1400.00,0.0159
1399.00,0.0160
1398.00,0.0162
1397.00,0.0163
1396.00,0.0165
1395.00,0.0168
1394.00,0.0172
1393.00,0.0176
1392.00,0.0180
1391.00,0.0187
1390.00,0.0196
1389.00,0.0209
1388.00,0.0229
1387.00,0.0260
1386.00,0.0302
1385.00,0.0357
1384.00,0.0434
1383.00,0.0544
1382.00,0.0697
1381.00,0.0899
1380.00,0.1156
1379.00,0.1454
1378.00,0.1748
1377.00,0.1969
1376.00,0.2051
1375.00,0.1954
1374.00,0.1707
1373.00,0.1407
1372.00,0.1133
1371.00,0.0908
1370.00,0.0730
1369.00,0.0595
1368.00,0.0502
1367.00,0.0445
1366.00,0.0414
1365.00,0.0402
1364.00,0.0404
1363.00,0.0419
1362.00,0.0442
1361.00,0.0467
1360.00,0.0485
1359.00,0.0490
1358.00,0.0480
1357.00,0.0453
1356.00,0.0415
1355.00,0.0372
1354.00,0.0331
1353.00,0.0295
1352.00,0.0266
1351.00,0.0243
1350.00,0.0224
1349.00,0.0209
1348.00,0.0197
1347.00,0.0187
1346.00,0.0178
1345.00,0.0170
1344.00,0.0164
1343.00,0.0159
1342.00,0.0155
1341.00,0.0152
1340.00,0.0150
1339.00,0.0148
1338.00,0.0146
1337.00,0.0146
1336.00,0.0147
1335.00,0.0149
1334.00,0.0152
1333.00,0.0157
1332.00,0.0162
1331.00,0.0166
1330.00,0.0167
1329.00,0.0166
1328.00,0.0161
1327.00,0.0155
1326.00,0.0149
1325.00,0.0142
1324.00,0.0136
1323.00,0.0131
1322.00,0.0127
1321.00,0.0124
1320.00,0.0121
1319.00,0.0119
1318.00,0.0117
1317.00,0.0116
1316.00,0.0114
1315.00,0.0113
1314.00,0.0113
1313.00,0.0113
1312.00,0.0114
1311.00,0.0116
1310.00,0.0118
1309.00,0.0123
1308.00,0.0129
1307.00,0.0136
1306.00,0.0143
1305.00,0.0148
1304.00,0.0150
1303.00,0.0150
1302.00,0.0149
1301.00,0.0148
1300.00,0.0148
1299.00,0.0150
1298.00,0.0152
1297.00,0.0153
1296.00,0.0153
1295.00,0.0151
1294.00,0.0148
1293.00,0.0143
1292.00,0.0138
1291.00,0.0133
1290.00,0.0128
1289.00,0.0123
1288.00,0.0120
1287.00,0.0117
1286.00,0.0115
1285.00,0.0113
1284.00,0.0112
1283.00,0.0110
1282.00,0.0109
1281.00,0.0108
1280.00,0.0107
1279.00,0.0107
1278.00,0.0106
1277.00,0.0105
1276.00,0.0105
1275.00,0.0106
1274.00,0.0106
1273.00,0.0106
1272.00,0.0106
1271.00,0.0107
1270.00,0.0108
1269.00,0.0109
1268.00,0.0111
1267.00,0.0113
1266.00,0.0115
1265.00,0.0118
1264.00,0.0121
1263.00,0.0124
1262.00,0.0127
1261.00,0.0130
1260.00,0.0133
1259.00,0.0137
1258.00,0.0141
1257.00,0.0144
1256.00,0.0144
1255.00,0.0141
1254.00,0.0137
1253.00,0.0131
1252.00,0.0125
1251.00,0.0121
1250.00,0.0117
1249.00,0.0115
1248.00,0.0113
1247.00,0.0112
1246.00,0.0111
1245.00,0.0109
1244.00,0.0107
1243.00,0.0106
1242.00,0.0104
1241.00,0.0103
1240.00,0.0103
1239.00,0.0103
1238.00,0.0103
1237.00,0.0103
1236.00,0.0103
1235.00,0.0103
1234.00,0.0102
1233.00,0.0103
1232.00,0.0103
1231.00,0.0104
1230.00,0.0104
1229.00,0.0105
1228.00,0.0106
1227.00,0.0107
1226.00,0.0110
1225.00,0.0113
1224.00,0.0116
1223.00,0.0120
1222.00,0.0123
1221.00,0.0126
1220.00,0.0127
1219.00,0.0127
1218.00,0.0126
1217.00,0.0124
1216.00,0.0120
1215.00,0.0117
1214.00,0.0114
1213.00,0.0112
1212.00,0.0109
1211.00,0.0106
1210.00,0.0103
1209.00,0.0101
1208.00,0.0100
1207.00,0.0099
1206.00,0.0098
1205.00,0.0098
1204.00,0.0097
1203.00,0.0096
1202.00,0.0096
1201.00,0.0096
1200.00,0.0096
1199.00,0.0096
1198.00,0.0096
1197.00,0.0096
1196.00,0.0096
1195.00,0.0096
1194.00,0.0096
1193.00,0.0096
1192.00,0.0096
1191.00,0.0096
1190.00,0.0096
1189.00,0.0097
1188.00,0.0097
1187.00,0.0097
1186.00,0.0097
1185.00,0.0098
1184.00,0.0099
1183.00,0.0100
1182.00,0.0102
1181.00,0.0104
1180.00,0.0107
1179.00,0.0110
1178.00,0.0116
1177.00,0.0122
1176.00,0.0130
1175.00,0.0140
1174.00,0.0154
1173.00,0.0172
1172.00,0.0192
1171.00,0.0214
1170.00,0.0235
1169.00,0.0251
1168.00,0.0261
1167.00,0.0264
1166.00,0.0260
1165.00,0.0253
1164.00,0.0244
1163.00,0.0236
1162.00,0.0228
1161.00,0.0222
1160.00,0.0217
1159.00,0.0214
1158.00,0.0211
1157.00,0.0210
1156.00,0.0210
1155.00,0.0210
1154.00,0.0211
1153.00,0.0211
1152.00,0.0209
1151.00,0.0203
1150.00,0.0194
1149.00,0.0184
1148.00,0.0175
1147.00,0.0167
1146.00,0.0159
1145.00,0.0151
1144.00,0.0144
1143.00,0.0137
1142.00,0.0132
1141.00,0.0127
1140.00,0.0124
1139.00,0.0121
1138.00,0.0118
1137.00,0.0116
1136.00,0.0115
1135.00,0.0113
1134.00,0.0112
1133.00,0.0111
1132.00,0.0110
1131.00,0.0111
1130.00,0.0111
1129.00,0.0112
1128.00,0.0112
1127.00,0.0111
1126.00,0.0112
1125.00,0.0113
1124.00,0.0114
1123.00,0.0115
1122.00,0.0116
1121.00,0.0117
1120.00,0.0118
1119.00,0.0119
1118.00,0.0120
1117.00,0.0121
1116.00,0.0122
1115.00,0.0124
1114.00,0.0126
1113.00,0.0128
1112.00,0.0131
1111.00,0.0134
1110.00,0.0138
1109.00,0.0143
1108.00,0.0148
1107.00,0.0154
1106.00,0.0161
1105.00,0.0167
1104.00,0.0173
1103.00,0.0176
1102.00,0.0176
1101.00,0.0173
1100.00,0.0167
1099.00,0.0160
1098.00,0.0153
1097.00,0.0147
1096.00,0.0142
1095.00,0.0138
1094.00,0.0135
1093.00,0.0132
1092.00,0.0130
1091.00,0.0129
1090.00,0.0128
1089.00,0.0126
1088.00,0.0125
1087.00,0.0124
1086.00,0.0123
1085.00,0.0123
1084.00,0.0123
1083.00,0.0124
1082.00,0.0124
1081.00,0.0124
1080.00,0.0123
1079.00,0.0123
1078.00,0.0122
1077.00,0.0121
1076.00,0.0120
1075.00,0.0120
1074.00,0.0120
1073.00,0.0119
1072.00,0.0118
1071.00,0.0118
1070.00,0.0118
1069.00,0.0118
1068.00,0.0118
1067.00,0.0119
1066.00,0.0119
1065.00,0.0119
1064.00,0.0119
1063.00,0.0119
1062.00,0.0119
1061.00,0.0120
1060.00,0.0121
1059.00,0.0122
1058.00,0.0124
1057.00,0.0126
1056.00,0.0127
1055.00,0.0128
1054.00,0.0129
1053.00,0.0132
1052.00,0.0135
1051.00,0.0138
1050.00,0.0141
1049.00,0.0144
1048.00,0.0148
1047.00,0.0152
1046.00,0.0155
1045.00,0.0158
1044.00,0.0159
1043.00,0.0159
1042.00,0.0158
1041.00,0.0157
1040.00,0.0157
1039.00,0.0156
1038.00,0.0156
1037.00,0.0156
1036.00,0.0156
1035.00,0.0156
1034.00,0.0156
1033.00,0.0155
1032.00,0.0154
1031.00,0.0153
1030.00,0.0153
1029.00,0.0153
1028.00,0.0153
1027.00,0.0154
1026.00,0.0155
1025.00,0.0157
1024.00,0.0160
1023.00,0.0163
1022.00,0.0165
1021.00,0.0168
1020.00,0.0169
1019.00,0.0170
1018.00,0.0170
1017.00,0.0170
1016.00,0.0169
1015.00,0.0168
1014.00,0.0167
1013.00,0.0166
1012.00,0.0166
1011.00,0.0166
1010.00,0.0166
1009.00,0.0165
1008.00,0.0165
1007.00,0.0165
1006.00,0.0168
1005.00,0.0175
1004.00,0.0185
1003.00,0.0199
1002.00,0.0217
1001.00,0.0240
1000.00,0.0263
999.00,0.0281
998.00,0.0288
997.00,0.0282
996.00,0.0262
995.00,0.0237
994.00,0.0211
993.00,0.0189
992.00,0.0172
991.00,0.0158
990.00,0.0148
989.00,0.0141
988.00,0.0137
987.00,0.0136
986.00,0.0136
985.00,0.0138
984.00,0.0141
983.00,0.0147
982.00,0.0155
981.00,0.0167
980.00,0.0184
979.00,0.0206
978.00,0.0234
977.00,0.0266
976.00,0.0298
975.00,0.0326
974.00,0.0343
973.00,0.0345
972.00,0.0330
971.00,0.0302
970.00,0.0267
969.00,0.0232
968.00,0.0203
967.00,0.0180
966.00,0.0164
965.00,0.0152
964.00,0.0142
963.00,0.0136
962.00,0.0130
961.00,0.0126
960.00,0.0123
959.00,0.0120
958.00,0.0117
957.00,0.0115
956.00,0.0113
955.00,0.0111
954.00,0.0110
953.00,0.0108
952.00,0.0107
951.00,0.0106
950.00,0.0105
949.00,0.0104
948.00,0.0105
947.00,0.0106
946.00,0.0109
945.00,0.0111
944.00,0.0115
943.00,0.0119
942.00,0.0123
941.00,0.0126
940.00,0.0126
939.00,0.0122
938.00,0.0116
937.00,0.0109
936.00,0.0103
935.00,0.0098
934.00,0.0095
933.00,0.0093
932.00,0.0092
931.00,0.0091
930.00,0.0090
929.00,0.0090
928.00,0.0089
927.00,0.0088
926.00,0.0087
925.00,0.0087
924.00,0.0087
923.00,0.0087
922.00,0.0088
921.00,0.0089
920.00,0.0089
919.00,0.0090
918.00,0.0090
917.00,0.0091
916.00,0.0091
915.00,0.0091
914.00,0.0092
913.00,0.0094
912.00,0.0096
911.00,0.0099
910.00,0.0101
909.00,0.0103
908.00,0.0105
907.00,0.0109
906.00,0.0117
905.00,0.0129
904.00,0.0144
903.00,0.0164
902.00,0.0185
901.00,0.0204
900.00,0.0216
899.00,0.0217
898.00,0.0208
897.00,0.0190
896.00,0.0170
895.00,0.0150
894.00,0.0134
893.00,0.0121
892.00,0.0112
891.00,0.0106
890.00,0.0102
889.00,0.0099
888.00,0.0097
887.00,0.0096
886.00,0.0094
885.00,0.0094
884.00,0.0094
883.00,0.0096
882.00,0.0099
881.00,0.0101
880.00,0.0102
879.00,0.0104
878.00,0.0106
877.00,0.0108
876.00,0.0109
875.00,0.0111
874.00,0.0111
873.00,0.0111
872.00,0.0109
871.00,0.0106
870.00,0.0103
869.00,0.0101
868.00,0.0101
867.00,0.0103
866.00,0.0104
865.00,0.0104
864.00,0.0104
863.00,0.0104
862.00,0.0103
861.00,0.0103
860.00,0.0104
859.00,0.0106
858.00,0.0108
857.00,0.0110
856.00,0.0111
855.00,0.0112
854.00,0.0114
853.00,0.0116
852.00,0.0118
851.00,0.0120
850.00,0.0123
849.00,0.0127
848.00,0.0132
847.00,0.0140
846.00,0.0152
845.00,0.0171
844.00,0.0199
843.00,0.0230
842.00,0.0254
841.00,0.0260
840.00,0.0245
839.00,0.0216
838.00,0.0184
837.00,0.0159
836.00,0.0144
835.00,0.0136
834.00,0.0133
833.00,0.0131
832.00,0.0129
831.00,0.0128
830.00,0.0126
829.00,0.0124
828.00,0.0123
827.00,0.0123
826.00,0.0123
825.00,0.0123
824.00,0.0124
823.00,0.0125
822.00,0.0127
821.00,0.0130
820.00,0.0133
819.00,0.0137
818.00,0.0143
817.00,0.0150
816.00,0.0161
815.00,0.0174
814.00,0.0190
813.00,0.0211
812.00,0.0235
811.00,0.0257
810.00,0.0274
809.00,0.0280
808.00,0.0274
807.00,0.0258
806.00,0.0236
805.00,0.0214
804.00,0.0195
803.00,0.0181
802.00,0.0170
801.00,0.0162
800.00,0.0155
799.00,0.0150
798.00,0.0145
797.00,0.0141
796.00,0.0137
795.00,0.0132
794.00,0.0128
793.00,0.0126
792.00,0.0123
791.00,0.0121
790.00,0.0117
789.00,0.0114
788.00,0.0112
787.00,0.0110
786.00,0.0109
785.00,0.0109
784.00,0.0108
783.00,0.0106
782.00,0.0104
781.00,0.0102
780.00,0.0101
779.00,0.0101
778.00,0.0102
777.00,0.0102
776.00,0.0102
775.00,0.0101
774.00,0.0101
773.00,0.0101
772.00,0.0103
771.00,0.0104
770.00,0.0105
769.00,0.0104
768.00,0.0102
767.00,0.0102
766.00,0.0103
765.00,0.0104
764.00,0.0104
763.00,0.0104
762.00,0.0104
761.00,0.0104
760.00,0.0105
759.00,0.0107
758.00,0.0108
757.00,0.0109
756.00,0.0108
755.00,0.0107
754.00,0.0106
753.00,0.0106
752.00,0.0107
751.00,0.0108
750.00,0.0109
749.00,0.0110
748.00,0.0112
747.00,0.0115
746.00,0.0118
745.00,0.0119
744.00,0.0120
743.00,0.0121
742.00,0.0122
741.00,0.0124
740.00,0.0128
739.00,0.0132
738.00,0.0137
737.00,0.0141
736.00,0.0146
735.00,0.0151
734.00,0.0155
733.00,0.0161
732.00,0.0168
731.00,0.0174
730.00,0.0180
729.00,0.0183
728.00,0.0184
727.00,0.0184
726.00,0.0185
725.00,0.0188
724.00,0.0193
723.00,0.0201
722.00,0.0209
721.00,0.0216
720.00,0.0217
719.00,0.0210
718.00,0.0199
717.00,0.0187
716.00,0.0177
715.00,0.0169
714.00,0.0164
713.00,0.0160
712.00,0.0156
711.00,0.0153
710.00,0.0150
709.00,0.0148
708.00,0.0147
707.00,0.0146
706.00,0.0144
705.00,0.0142
704.00,0.0140
703.00,0.0139
702.00,0.0139
701.00,0.0139
700.00,0.0139
699.00,0.0139
698.00,0.0139
697.00,0.0138
696.00,0.0139
695.00,0.0140
694.00,0.0141
693.00,0.0142
692.00,0.0141
691.00,0.0140
690.00,0.0138
689.00,0.0136
688.00,0.0136
687.00,0.0137
686.00,0.0139
685.00,0.0141
684.00,0.0142
683.00,0.0143
682.00,0.0142
681.00,0.0140
680.00,0.0139
679.00,0.0140
678.00,0.0141
677.00,0.0143
676.00,0.0144
675.00,0.0146
674.00,0.0147
673.00,0.0148
672.00,0.0148
671.00,0.0148
670.00,0.0148
669.00,0.0146
668.00,0.0145
667.00,0.0145
666.00,0.0145
665.00,0.0145
664.00,0.0145
663.00,0.0144
662.00,0.0143
661.00,0.0142
660.00,0.0142
659.00,0.0141
658.00,0.0141
657.00,0.0141
656.00,0.0141
655.00,0.0141
654.00,0.0141
653.00,0.0140
652.00,0.0139
651.00,0.0136
650.00,0.0135
649.00,0.0134
648.00,0.0133
647.00,0.0134
646.00,0.0135
645.00,0.0137
644.00,0.0139
643.00,0.0140
642.00,0.0139
641.00,0.0137
640.00,0.0137
639.00,0.0137
638.00,0.0138
637.00,0.0138
636.00,0.0137
635.00,0.0136
634.00,0.0135
633.00,0.0135
632.00,0.0135
631.00,0.0136
630.00,0.0137
629.00,0.0138
628.00,0.0141
627.00,0.0144
626.00,0.0146
625.00,0.0146
624.00,0.0145
623.00,0.0144
622.00,0.0145
621.00,0.0144
620.00,0.0143
619.00,0.0139
618.00,0.0136
617.00,0.0135
616.00,0.0136
615.00,0.0137
614.00,0.0137
613.00,0.0137
612.00,0.0137
611.00,0.0138
610.00,0.0139
609.00,0.0139
608.00,0.0139
607.00,0.0138
606.00,0.0138
605.00,0.0139
604.00,0.0141
603.00,0.0143
602.00,0.0146
601.00,0.0145
600.00,0.0140
599.00,0.0135
598.00,0.0131
597.00,0.0132
596.00,0.0135
595.00,0.0138
594.00,0.0139
593.00,0.0139
592.00,0.0139
591.00,0.0139
590.00,0.0139
589.00,0.0138
588.00,0.0136
587.00,0.0135
586.00,0.0135
585.00,0.0136
584.00,0.0137
583.00,0.0137
582.00,0.0137
581.00,0.0137
580.00,0.0137
579.00,0.0138
578.00,0.0138
577.00,0.0140
576.00,0.0141
575.00,0.0142
574.00,0.0142
573.00,0.0141
572.00,0.0138
571.00,0.0135
570.00,0.0134
569.00,0.0134
568.00,0.0135
567.00,0.0136
566.00,0.0136
565.00,0.0136
564.00,0.0137
563.00,0.0141
562.00,0.0144
561.00,0.0147
560.00,0.0149
559.00,0.0149
558.00,0.0148
557.00,0.0146
556.00,0.0145
555.00,0.0146
554.00,0.0149
553.00,0.0151
552.00,0.0150
551.00,0.0147
550.00,0.0144
549.00,0.0142
548.00,0.0144
547.00,0.0148
546.00,0.0153
545.00,0.0157
544.00,0.0158
543.00,0.0156
542.00,0.0153
541.00,0.0152
540.00,0.0153
539.00,0.0158
538.00,0.0164
537.00,0.0169
536.00,0.0172
535.00,0.0174
534.00,0.0174
533.00,0.0173
532.00,0.0172
531.00,0.0170
530.00,0.0169
529.00,0.0169
528.00,0.0170
527.00,0.0170
526.00,0.0168
525.00,0.0164
524.00,0.0158
523.00,0.0154
522.00,0.0153
521.00,0.0156
520.00,0.0160
519.00,0.0163
518.00,0.0162
517.00,0.0158
516.00,0.0156
515.00,0.0155
514.00,0.0157
513.00,0.0159
512.00,0.0160
511.00,0.0157
510.00,0.0151
509.00,0.0146
508.00,0.0143
507.00,0.0141
506.00,0.0142
505.00,0.0143
504.00,0.0146
503.00,0.0147
502.00,0.0145
501.00,0.0142
500.00,0.0140
499.00,0.0140
498.00,0.0138
497.00,0.0134
496.00,0.0131
495.00,0.0132
494.00,0.0139
493.00,0.0147
492.00,0.0153
491.00,0.0154
490.00,0.0152
489.00,0.0148
488.00,0.0143
487.00,0.0138
486.00,0.0136
485.00,0.0137
484.00,0.0141
483.00,0.0146
482.00,0.0152
481.00,0.0158
480.00,0.0164
479.00,0.0167
478.00,0.0164
477.00,0.0154
476.00,0.0145
475.00,0.0142
474.00,0.0147
473.00,0.0157
472.00,0.0167
471.00,0.0175
470.00,0.0184
469.00,0.0197
468.00,0.0211
467.00,0.0220
466.00,0.0221
465.00,0.0216
464.00,0.0216
463.00,0.0226
462.00,0.0244
461.00,0.0265
460.00,0.0280
459.00,0.0286
458.00,0.0281
457.00,0.0274
456.00,0.0271
455.00,0.0272
454.00,0.0268
453.00,0.0254
452.00,0.0234
451.00,0.0215
450.00,0.0202
